sec,mV,BPM
0.145,-0.055960313,0
0.146,-0.063306829,0
0.147,-0.070014519,0
0.148,-0.075125139,0
0.149,-0.078638691,0
0.15,-0.079596932,0
0.151,-0.078319277,0
0.152,-0.075125139,0
0.153,-0.070014519,0
0.154,-0.063945657,0
0.155,-0.057237968,0
0.156,-0.050849692,0
0.157,-0.045419658,0
0.158,-0.041906107,0
0.159,-0.040309038,0
0.16,-0.040947865,0
0.161,-0.043503176,0
0.162,-0.047655555,0
0.163,-0.053405003,0
0.164,-0.059793278,0
0.165,-0.066500967,0
0.166,-0.072569829,0
0.167,-0.077361035,0
0.168,-0.080555173,0
0.169,-0.082152242,0
0.17,-0.081194001,0
0.171,-0.078319277,0
0.172,-0.07352807,0
0.173,-0.067139795,0
0.174,-0.060112692,0
0.175,-0.052446761,0
0.176,-0.045100244,0
0.177,-0.039031383,0
0.178,-0.035198417,0
0.179,-0.033281935,0
0.18,-0.033920762,0
0.181,-0.0371149,0
0.182,-0.041906107,0
0.183,-0.048294382,0
0.184,-0.055321485,0
0.185,-0.062029174,0
0.186,-0.067778622,0
0.187,-0.072250415,0
0.188,-0.074805725,0
0.189,-0.074805725,0
0.19,-0.072889243,0
0.191,-0.068736864,0
0.192,-0.062987416,0
0.193,-0.056279726,0
0.194,-0.049572037,0
0.195,-0.043183762,0
0.196,-0.037753728,0
0.197,-0.033601349,0
0.198,-0.031365452,0
0.199,-0.031684866,0
0.2,-0.033920762,0
0.201,-0.038711969,0
0.202,-0.045100244,0
0.203,-0.052766175,0
0.204,-0.060112692,0
0.205,-0.067139795,0
0.206,-0.073208656,0
0.207,-0.077361035,0
0.208,-0.079277518,0
0.209,-0.078638691,0
0.21,-0.075444553,0
0.211,-0.070014519,0
0.212,-0.062668002,0
0.213,-0.05404383,0
0.214,-0.045100244,0
0.215,-0.036795486,0
0.216,-0.02944897,0
0.217,-0.024338349,0
0.218,-0.021144211,0
0.219,-0.020824798,0
0.22,-0.023060694,0
0.221,-0.027532487,0
0.222,-0.033920762,0
0.223,-0.041267279,0
0.224,-0.04893321,0
0.225,-0.056279726,0
0.226,-0.062668002,0
0.227,-0.067459209,0
0.228,-0.070333932,0
0.229,-0.070653346,0
0.23,-0.068736864,0
0.231,-0.064584485,0
0.232,-0.058515623,0
0.233,-0.05148852,0
0.234,-0.044142003,0
0.235,-0.0371149,0
0.236,-0.031684866,0
0.237,-0.028171314,0
0.238,-0.026893659,0
0.239,-0.028490728,0
0.24,-0.032323694,0
0.241,-0.038073141,0
0.242,-0.045419658,0
0.243,-0.053405003,0
0.244,-0.061390347,0
0.245,-0.068736864,0
0.246,-0.074486312,0
0.247,-0.078319277,0
0.248,-0.079916346,0
0.249,-0.078958104,0
0.25,-0.075444553,0
0.251,-0.069695105,0
0.252,-0.062668002,0
0.253,-0.054682658,0
0.254,-0.047016727,0
0.255,-0.039989624,0
0.256,-0.03455959,0
0.257,-0.031046038,0
0.258,-0.030407211,0
0.259,-0.03200428,0
0.26,-0.036476073,0
0.261,-0.042864348,0
0.262,-0.051169106,0
0.263,-0.059793278,0
0.264,-0.06841745,0
0.265,-0.07608338,0
0.266,-0.082471656,0
0.267,-0.086624035,0
0.268,-0.088540518,0
0.269,-0.088221104,0
0.27,-0.085026966,0
0.271,-0.080235759,0
0.272,-0.073208656,0
0.273,-0.065542726,0
0.274,-0.057557382,0
0.275,-0.050210865,0
0.276,-0.044142003,0
0.277,-0.03967021,0
0.278,-0.037753728,0
0.279,-0.038392555,0
0.28,-0.040628452,0
0.281,-0.045100244,0
0.282,-0.050210865,0
0.283,-0.055960313,0
0.284,-0.061709761,0
0.285,-0.066181553,0
0.286,-0.069375691,0
0.287,-0.070333932,0
0.288,-0.069695105,0
0.289,-0.066500967,0
0.29,-0.061390347,0
0.291,-0.055002071,0
0.292,-0.047655555,0
0.293,-0.040309038,0
0.294,-0.033281935,0
0.295,-0.027532487,0
0.296,-0.023380108,0
0.297,-0.021144211,0
0.298,-0.021144211,0
0.299,-0.023060694,0
0.3,-0.026893659,0
0.301,-0.03200428,0
0.302,-0.037753728,0
0.303,-0.043183762,0
0.304,-0.047974968,0
0.305,-0.051169106,0
0.306,-0.052127347,0
0.307,-0.050849692,0
0.308,-0.046697313,0
0.309,-0.03967021,0
0.31,-0.030726625,0
0.311,-0.02018597,0
0.312,-0.008687074,0
0.313,0.002492408,0
0.314,0.012713648,0
0.315,0.021976648,0
0.316,0.029003751,0
0.317,0.033794957,0
0.318,0.036030854,0
0.319,0.03571144,0
0.32,0.033475544,0
0.321,0.029642578,0
0.322,0.025170786,0
0.323,0.020698993,0
0.324,0.017185441,0
0.325,0.015268959,0
0.326,0.014949545,0
0.327,0.016866027,0
0.328,0.021018407,0
0.329,0.027406682,0
0.33,0.035072613,0
0.331,0.044016198,0
0.332,0.053598611,0
0.333,0.062542197,0
0.334,0.070846955,0
0.335,0.077235231,0
0.336,0.081068196,0
0.337,0.081707023,0
0.338,0.079471127,0
0.339,0.074041093,0
0.34,0.066375162,0
0.341,0.057112163,0
0.342,0.047210336,0
0.343,0.037627923,0
0.344,0.029323165,0
0.345,0.022296062,0
0.346,0.017185441,0
0.347,0.01367189,0
0.348,0.012394235,0
0.349,0.012713648,0
0.35,0.014630131,0
0.351,0.017504855,0
0.352,0.020698993,0
0.353,0.023254303,0
0.354,0.024212544,0
0.355,0.023254303,0
0.356,0.020060165,0
0.357,0.01367189,0
0.358,0.00440889,0
0.359,-0.006770592,0
0.36,-0.019866556,0
0.361,-0.033920762,0
0.362,-0.048294382,0
0.363,-0.061390347,0
0.364,-0.072889243,0
0.365,-0.081832828,0
0.366,-0.08790169,0
0.367,-0.091095828,0
0.368,-0.091095828,0
0.369,-0.088221104,0
0.37,-0.083429897,0
0.371,-0.077041622,0
0.372,-0.069695105,0
0.373,-0.062348588,0
0.374,-0.055960313,0
0.375,-0.051169106,0
0.376,-0.048613796,0
0.377,-0.048613796,0
0.378,-0.050849692,0
0.379,-0.055640899,0
0.38,-0.062348588,0
0.381,-0.069695105,0
0.382,-0.077680449,0
0.383,-0.08534638,0
0.384,-0.091734655,0
0.385,-0.096525862,0
0.386,-0.099081172,0
0.387,-0.099081172,0
0.388,-0.097164689,0
0.389,-0.09301231,0
0.39,-0.087582276,0
0.391,-0.081194001,0
0.392,-0.074805725,0
0.393,-0.069056277,0
0.394,-0.064265071,0
0.395,-0.061709761,0
0.396,-0.061390347,0
0.397,-0.063626243,0
0.398,-0.06841745,0
0.399,-0.075125139,0
0.4,-0.083429897,0
0.401,-0.092054069,0
0.402,-0.09972,0
0.403,-0.106108275,0
0.404,-0.110899482,0
0.405,-0.113454792,0
0.406,-0.113454792,0
0.407,-0.111218895,0
0.408,-0.107066516,0
0.409,-0.100997655,0
0.41,-0.094289965,0
0.411,-0.086943449,0
0.412,-0.079916346,0
0.413,-0.07352807,0
0.414,-0.068736864,0
0.415,-0.066181553,0
0.416,-0.06586214,0
0.417,-0.067778622,0
0.418,-0.071611588,0
0.419,-0.077361035,0
0.42,-0.083429897,0
0.421,-0.089818173,0
0.422,-0.094928793,0
0.423,-0.098122931,0
0.424,-0.098442344,0
0.425,-0.095567621,0
0.426,-0.088221104,0
0.427,-0.076722208,0
0.428,-0.060432106,0
0.429,-0.039989624,0
0.43,-0.016033591,0
0.431,0.010477752,0
0.432,0.039544405,0
0.433,0.069249886,0
0.434,0.099913608,0
0.435,0.130257917,0
0.436,0.160282811,0
0.437,0.189668879,0
0.438,0.217777291,0
0.439,0.244288634,0
0.44,0.269202908,0
0.441,0.292520113,0
0.442,0.31424025,0
0.443,0.334682731,0
0.444,0.353528144,0
0.445,0.370457074,0
0.446,0.38451128,0
0.447,0.395051934,0
0.448,0.40144021,0
0.449,0.403037279,0
0.45,0.399204313,0
0.451,0.3896219,0
0.452,0.374290039,0
0.453,0.352889316,0
0.454,0.325419732,0
0.455,0.2922007,0
0.456,0.253871047,0
0.457,0.211389015,0
0.458,0.166032259,0
0.459,0.119078435,0
0.46,0.072763438,0
0.461,0.027726096,0
0.462,-0.013158867,0
0.463,-0.050210865,0
0.464,-0.082152242,0
0.465,-0.107705344,0
0.466,-0.12687017,0
0.467,-0.139966135,0
0.468,-0.146993238,0
0.469,-0.149548548,0
0.47,-0.148270893,0
0.471,-0.144757342,0
0.472,-0.139646721,0
0.473,-0.134536101,0
0.474,-0.12942548,0
0.475,-0.125911929,0
0.476,-0.123356619,0
0.477,-0.122398377,0
0.478,-0.122398377,0
0.479,-0.123037205,0
0.48,-0.123995446,0
0.481,-0.124953688,0
0.482,-0.125273101,0
0.483,-0.124634274,0
0.484,-0.122398377,0
0.485,-0.118245998,0
0.486,-0.112177137,0
0.487,-0.104191792,0
0.488,-0.094928793,0
0.489,-0.085026966,0
0.49,-0.074805725,0
0.491,-0.065542726,0
0.492,-0.057876795,0
0.493,-0.052446761,0
0.494,-0.049572037,0
0.495,-0.049572037,0
0.496,-0.052127347,0
0.497,-0.057557382,0
0.498,-0.064584485,0
0.499,-0.072569829,0
0.5,-0.081194001,0
0.501,-0.089179345,0
0.502,-0.095887034,0
0.503,-0.100997655,0
0.504,-0.103872379,0
0.505,-0.104191792,0
0.506,-0.101955896,0
0.507,-0.097803517,0
0.508,-0.091734655,0
0.509,-0.084388138,0
0.51,-0.076722208,0
0.511,-0.069375691,0
0.512,-0.063306829,0
0.513,-0.058835037,0
0.514,-0.05659914,0
0.515,-0.05659914,0
0.516,-0.05915445,0
0.517,-0.063626243,0
0.518,-0.070014519,0
0.519,-0.077361035,0
0.52,-0.085026966,0
0.521,-0.092054069,0
0.522,-0.097803517,0
0.523,-0.101636482,0
0.524,-0.103552965,0
0.525,-0.102914137,0
0.526,-0.100039413,0
0.527,-0.095248207,0
0.528,-0.089179345,0
0.529,-0.082152242,0
0.53,-0.075125139,0
0.531,-0.068736864,0
0.532,-0.063626243,0
0.533,-0.060432106,0
0.534,-0.05915445,0
0.535,-0.060432106,0
0.536,-0.063626243,0
0.537,-0.06841745,0
0.538,-0.074486312,0
0.539,-0.080555173,0
0.54,-0.086304621,0
0.541,-0.091095828,0
0.542,-0.094289965,0
0.543,-0.095567621,0
0.544,-0.094609379,0
0.545,-0.091734655,0
0.546,-0.086943449,0
0.547,-0.080555173,0
0.548,-0.073208656,0
0.549,-0.065542726,0
0.55,-0.058196209,0
0.551,-0.052127347,0
0.552,-0.047655555,0
0.553,-0.045100244,0
0.554,-0.044780831,0
0.555,-0.047016727,0
0.556,-0.051169106,0
0.557,-0.057237968,0
0.558,-0.064584485,0
0.559,-0.071931001,0
0.56,-0.078638691,0
0.561,-0.084388138,0
0.562,-0.088221104,0
0.563,-0.089818173,0
0.564,-0.088540518,0
0.565,-0.085026966,0
0.566,-0.078958104,0
0.567,-0.07097276,0
0.568,-0.062348588,0
0.569,-0.053405003,0
0.57,-0.045419658,0
0.571,-0.038711969,0
0.572,-0.033920762,0
0.573,-0.031684866,0
0.574,-0.031684866,0
0.575,-0.033920762,0
0.576,-0.038392555,0
0.577,-0.044461417,0
0.578,-0.05148852,0
0.579,-0.058196209,0
0.58,-0.063945657,0
0.581,-0.068098036,0
0.582,-0.070333932,0
0.583,-0.070333932,0
0.584,-0.067778622,0
0.585,-0.062668002,0
0.586,-0.055960313,0
0.587,-0.047655555,0
0.588,-0.038392555,0
0.589,-0.02944897,0
0.59,-0.021463625,0
0.591,-0.014755936,0
0.592,-0.010284143,0
0.593,-0.008367661,0
0.594,-0.009325902,0
0.595,-0.012839453,0
0.596,-0.018269488,0
0.597,-0.025296591,0
0.598,-0.033281935,0
0.599,-0.040628452,0
0.6,-0.047336141,0
0.601,-0.052766175,0
0.602,-0.055960313,0
0.603,-0.056918554,0
0.604,-0.055321485,0
0.605,-0.05148852,0
0.606,-0.045419658,0
0.607,-0.037753728,0
0.608,-0.02944897,0
0.609,-0.020824798,0
0.61,-0.013478281,0
0.611,-0.007409419,0
0.612,-0.00325704,0
0.613,-0.001659971,0
0.614,-0.002298799,0
0.615,-0.005173523,0
0.616,-0.009645316,0
0.617,-0.01507535,0
0.618,-0.021144211,0
0.619,-0.026574246,0
0.62,-0.031046038,0
0.621,-0.034240176,0
0.622,-0.035517831,0
0.623,-0.034240176,0
0.624,-0.030726625,0
0.625,-0.024977177,0
0.626,-0.017311246,0
0.627,-0.008367661,0
0.628,0.000575925,0
0.629,0.008880683,0
0.63,0.0162272,0
0.631,0.021657234,0
0.632,0.024851372,0
0.633,0.025170786,0
0.634,0.023254303,0
0.635,0.019421338,0
0.636,0.01367189,0
0.637,0.007603028,0
0.638,0.00185358,0
0.639,-0.00325704,0
0.64,-0.007409419,0
0.641,-0.009645316,0
0.642,-0.009964729,0
0.643,-0.007728833,0
0.644,-0.00325704,0
0.645,0.003450649,0
0.646,0.011435993,0
0.647,0.020698993,0
0.648,0.029961992,0
0.649,0.038905578,0
0.65,0.046252095,0
0.651,0.051682129,0
0.652,0.054556853,0
0.653,0.054556853,0
0.654,0.052320956,0
0.655,0.048168577,0
0.656,0.042419129,0
0.657,0.036030854,0
0.658,0.029961992,0
0.659,0.024851372,0
0.66,0.021018407,0
0.661,0.019101924,0
0.662,0.019740751,0
0.663,0.022934889,0
0.664,0.028364923,0
0.665,0.03571144,0
0.666,0.044655026,0
0.667,0.054556853,0
0.668,0.06445868,0
0.669,0.073402265,0
0.67,0.081068196,0
0.671,0.086178816,0
0.672,0.08905354,0
0.673,0.089372954,0
0.674,0.087137057,0
0.675,0.082984678,0
0.676,0.077554644,0
0.677,0.07212461,0
0.678,0.06701399,0
0.679,0.063181025,0
0.68,0.060945128,0
0.681,0.060625714,0
0.682,0.062222783,0
0.683,0.066055748,0
0.684,0.07212461,0
0.685,0.079471127,0
0.686,0.088095299,0
0.687,0.097038884,0
0.688,0.105024229,0
0.689,0.112370746,0
0.69,0.11780078,0
0.691,0.121314331,0
0.692,0.122591986,0
0.693,0.120994917,0
0.694,0.116842538,0
0.695,0.11109309,0
0.696,0.103746574,0
0.697,0.096080643,0
0.698,0.089372954,0
0.699,0.083304092,0
0.7,0.079471127,0
0.701,0.077874058,0
0.702,0.078832299,0
0.703,0.082026437,0
0.704,0.087137057,0
0.705,0.093525333,0
0.706,0.10087185,0
0.707,0.108218366,0
0.708,0.115245469,0
0.709,0.120675504,0
0.71,0.124189055,0
0.711,0.125147296,0
0.712,0.123230814,0
0.713,0.118759021,0
0.714,0.111731918,0
0.715,0.103107746,0
0.716,0.093525333,0
0.717,0.083623506,0
0.718,0.074360507,0
0.719,0.066375162,0
0.72,0.059986887,0
0.721,0.055834508,0
0.722,0.054237439,0
0.723,0.054556853,0
0.724,0.056792749,0
0.725,0.060306301,0
0.726,0.06445868,0
0.727,0.068611059,0
0.728,0.071485783,0
0.729,0.073082851,0
0.73,0.072763438,0
0.731,0.069888714,0
0.732,0.06445868,0
0.733,0.057112163,169.0140845
0.734,0.04752975,169.0140845
0.735,0.036669681,169.0140845
0.736,0.025170786,169.0140845
0.737,0.01367189,169.0140845
0.738,0.003131235,169.0140845
0.739,-0.006451178,169.0140845
0.74,-0.014117108,169.0140845
0.741,-0.019547143,169.0140845
0.742,-0.022421867,169.0140845
0.743,-0.023380108,169.0140845
0.744,-0.022421867,169.0140845
0.745,-0.020505384,169.0140845
0.746,-0.017950074,169.0140845
0.747,-0.015394764,169.0140845
0.748,-0.014117108,169.0140845
0.749,-0.014117108,169.0140845
0.75,-0.016353005,169.0140845
0.751,-0.020505384,169.0140845
0.752,-0.027213073,169.0140845
0.753,-0.035837245,169.0140845
0.754,-0.046697313,169.0140845
0.755,-0.058196209,169.0140845
0.756,-0.070014519,169.0140845
0.757,-0.081194001,169.0140845
0.758,-0.090457,169.0140845
0.759,-0.097803517,169.0140845
0.76,-0.102914137,169.0140845
0.761,-0.105469447,169.0140845
0.762,-0.105469447,169.0140845
0.763,-0.103233551,169.0140845
0.764,-0.099081172,169.0140845
0.765,-0.093970552,169.0140845
0.766,-0.08790169,169.0140845
0.767,-0.082471656,169.0140845
0.768,-0.077680449,169.0140845
0.769,-0.074486312,169.0140845
0.77,-0.07352807,169.0140845
0.771,-0.074805725,169.0140845
0.772,-0.078638691,169.0140845
0.773,-0.084388138,169.0140845
0.774,-0.092054069,169.0140845
0.775,-0.100358827,169.0140845
0.776,-0.108663585,169.0140845
0.777,-0.116010102,169.0140845
0.778,-0.122398377,169.0140845
0.779,-0.12687017,169.0140845
0.78,-0.129106067,169.0140845
0.781,-0.12942548,169.0140845
0.782,-0.127508998,169.0140845
0.783,-0.123356619,169.0140845
0.784,-0.118245998,169.0140845
0.785,-0.111857723,169.0140845
0.786,-0.105788861,169.0140845
0.787,-0.100039413,169.0140845
0.788,-0.095567621,169.0140845
0.789,-0.092692897,169.0140845
0.79,-0.092373483,169.0140845
0.791,-0.093970552,169.0140845
0.792,-0.098122931,169.0140845
0.793,-0.103872379,169.0140845
0.794,-0.110899482,169.0140845
0.795,-0.118884826,169.0140845
0.796,-0.126550756,169.0140845
0.797,-0.133258446,169.0140845
0.798,-0.138369066,169.0140845
0.799,-0.14124379,169.0140845
0.8,-0.141563204,169.0140845
0.801,-0.139646721,169.0140845
0.802,-0.135174928,169.0140845
0.803,-0.129106067,169.0140845
0.804,-0.121440136,169.0140845
0.805,-0.113774206,169.0140845
0.806,-0.106108275,169.0140845
0.807,-0.099400586,169.0140845
0.808,-0.094609379,169.0140845
0.809,-0.092373483,169.0140845
0.81,-0.092373483,169.0140845
0.811,-0.094609379,169.0140845
0.812,-0.099400586,169.0140845
0.813,-0.105788861,169.0140845
0.814,-0.113135378,169.0140845
0.815,-0.121120722,169.0140845
0.816,-0.128786653,169.0140845
0.817,-0.135174928,169.0140845
0.818,-0.140285549,169.0140845
0.819,-0.142840859,169.0140845
0.82,-0.143160273,169.0140845
0.821,-0.140924376,169.0140845
0.822,-0.13613317,169.0140845
0.823,-0.129106067,169.0140845
0.824,-0.121120722,169.0140845
0.825,-0.11249655,169.0140845
0.826,-0.104191792,169.0140845
0.827,-0.097164689,169.0140845
0.828,-0.091734655,169.0140845
0.829,-0.088540518,169.0140845
0.83,-0.087582276,169.0140845
0.831,-0.089179345,169.0140845
0.832,-0.092692897,169.0140845
0.833,-0.098122931,169.0140845
0.834,-0.104511206,169.0140845
0.835,-0.110899482,169.0140845
0.836,-0.116968343,169.0140845
0.837,-0.12175955,169.0140845
0.838,-0.125273101,169.0140845
0.839,-0.126550756,169.0140845
0.84,-0.125273101,169.0140845
0.841,-0.122078964,169.0140845
0.842,-0.11664893,169.0140845
0.843,-0.110260654,169.0140845
0.844,-0.102914137,169.0140845
0.845,-0.095567621,169.0140845
0.846,-0.089179345,169.0140845
0.847,-0.084068725,169.0140845
0.848,-0.080874587,169.0140845
0.849,-0.079916346,169.0140845
0.85,-0.081513415,169.0140845
0.851,-0.084707552,169.0140845
0.852,-0.090137586,169.0140845
0.853,-0.096525862,169.0140845
0.854,-0.103552965,169.0140845
0.855,-0.110260654,169.0140845
0.856,-0.116329516,169.0140845
0.857,-0.120801309,169.0140845
0.858,-0.123356619,169.0140845
0.859,-0.123676033,169.0140845
0.86,-0.121120722,169.0140845
0.861,-0.116329516,169.0140845
0.862,-0.109302413,169.0140845
0.863,-0.101317068,169.0140845
0.864,-0.09301231,169.0140845
0.865,-0.085026966,169.0140845
0.866,-0.077999863,169.0140845
0.867,-0.072569829,169.0140845
0.868,-0.068736864,169.0140845
0.869,-0.067459209,169.0140845
0.87,-0.06841745,169.0140845
0.871,-0.071931001,169.0140845
0.872,-0.077361035,169.0140845
0.873,-0.084068725,169.0140845
0.874,-0.091415241,169.0140845
0.875,-0.098442344,169.0140845
0.876,-0.104511206,169.0140845
0.877,-0.108344171,169.0140845
0.878,-0.110260654,169.0140845
0.879,-0.109621827,169.0140845
0.88,-0.106108275,169.0140845
0.881,-0.100678241,169.0140845
0.882,-0.09301231,169.0140845
0.883,-0.084707552,169.0140845
0.884,-0.075763967,169.0140845
0.885,-0.067459209,169.0140845
0.886,-0.060112692,169.0140845
0.887,-0.055002071,169.0140845
0.888,-0.052127347,169.0140845
0.889,-0.05148852,169.0140845
0.89,-0.053724416,169.0140845
0.891,-0.058196209,169.0140845
0.892,-0.063945657,169.0140845
0.893,-0.07097276,169.0140845
0.894,-0.078319277,169.0140845
0.895,-0.08534638,169.0140845
0.896,-0.091415241,169.0140845
0.897,-0.096206448,169.0140845
0.898,-0.098761758,169.0140845
0.899,-0.098761758,169.0140845
0.9,-0.096206448,169.0140845
0.901,-0.091415241,169.0140845
0.902,-0.084707552,169.0140845
0.903,-0.077041622,169.0140845
0.904,-0.069056277,169.0140845
0.905,-0.061709761,169.0140845
0.906,-0.055640899,169.0140845
0.907,-0.051169106,169.0140845
0.908,-0.049252623,169.0140845
0.909,-0.049572037,169.0140845
0.91,-0.051807934,169.0140845
0.911,-0.056279726,169.0140845
0.912,-0.062029174,169.0140845
0.913,-0.068736864,169.0140845
0.914,-0.075763967,169.0140845
0.915,-0.082471656,169.0140845
0.916,-0.088221104,169.0140845
0.917,-0.092054069,169.0140845
0.918,-0.093970552,169.0140845
0.919,-0.093331724,169.0140845
0.92,-0.090457,169.0140845
0.921,-0.085665794,169.0140845
0.922,-0.079916346,169.0140845
0.923,-0.072889243,169.0140845
0.924,-0.06586214,169.0140845
0.925,-0.059473864,169.0140845
0.926,-0.054363244,169.0140845
0.927,-0.050849692,169.0140845
0.928,-0.049572037,169.0140845
0.929,-0.050530279,169.0140845
0.93,-0.053724416,169.0140845
0.931,-0.058515623,169.0140845
0.932,-0.064265071,169.0140845
0.933,-0.070333932,169.0140845
0.934,-0.076402794,169.0140845
0.935,-0.081513415,169.0140845
0.936,-0.084707552,169.0140845
0.937,-0.086304621,169.0140845
0.938,-0.085665794,169.0140845
0.939,-0.083110483,169.0140845
0.94,-0.078638691,169.0140845
0.941,-0.072569829,169.0140845
0.942,-0.06586214,169.0140845
0.943,-0.05915445,169.0140845
0.944,-0.052766175,169.0140845
0.945,-0.047974968,169.0140845
0.946,-0.044780831,169.0140845
0.947,-0.044142003,169.0140845
0.948,-0.046058486,169.0140845
0.949,-0.050210865,169.0140845
0.95,-0.05659914,169.0140845
0.951,-0.064265071,169.0140845
0.952,-0.072250415,169.0140845
0.953,-0.080555173,169.0140845
0.954,-0.08790169,169.0140845
0.955,-0.094289965,169.0140845
0.956,-0.099081172,169.0140845
0.957,-0.100997655,169.0140845
0.958,-0.100678241,169.0140845
0.959,-0.097803517,169.0140845
0.96,-0.092054069,169.0140845
0.961,-0.084707552,169.0140845
0.962,-0.07608338,169.0140845
0.963,-0.066820381,169.0140845
0.964,-0.058196209,169.0140845
0.965,-0.051169106,169.0140845
0.966,-0.046058486,169.0140845
0.967,-0.043503176,169.0140845
0.968,-0.043822589,169.0140845
0.969,-0.047016727,169.0140845
0.97,-0.052127347,169.0140845
0.971,-0.05915445,169.0140845
0.972,-0.066820381,169.0140845
0.973,-0.074486312,169.0140845
0.974,-0.081513415,169.0140845
0.975,-0.086943449,169.0140845
0.976,-0.090776414,169.0140845
0.977,-0.092373483,169.0140845
0.978,-0.091415241,169.0140845
0.979,-0.087582276,169.0140845
0.98,-0.081832828,169.0140845
0.981,-0.074166898,169.0140845
0.982,-0.065542726,169.0140845
0.983,-0.056918554,169.0140845
0.984,-0.048613796,169.0140845
0.985,-0.041586693,169.0140845
0.986,-0.036476073,169.0140845
0.987,-0.033601349,169.0140845
0.988,-0.033281935,169.0140845
0.989,-0.035517831,169.0140845
0.99,-0.039989624,169.0140845
0.991,-0.045739072,169.0140845
0.992,-0.052766175,169.0140845
0.993,-0.060112692,169.0140845
0.994,-0.066820381,169.0140845
0.995,-0.072250415,169.0140845
0.996,-0.07608338,169.0140845
0.997,-0.077680449,169.0140845
0.998,-0.077041622,169.0140845
0.999,-0.074486312,169.0140845
1,-0.070653346,169.0140845
1.001,-0.065223312,169.0140845
1.002,-0.05915445,169.0140845
1.003,-0.053405003,169.0140845
1.004,-0.048294382,169.0140845
1.005,-0.044461417,169.0140845
1.006,-0.042864348,169.0140845
1.007,-0.042864348,169.0140845
1.008,-0.045419658,169.0140845
1.009,-0.049891451,169.0140845
1.01,-0.055960313,169.0140845
1.011,-0.062668002,169.0140845
1.012,-0.069695105,169.0140845
1.013,-0.07608338,169.0140845
1.014,-0.081513415,169.0140845
1.015,-0.08534638,169.0140845
1.016,-0.086943449,169.0140845
1.017,-0.085985207,169.0140845
1.018,-0.083110483,169.0140845
1.019,-0.077999863,169.0140845
1.02,-0.07097276,169.0140845
1.021,-0.063306829,169.0140845
1.022,-0.055321485,169.0140845
1.023,-0.047655555,169.0140845
1.024,-0.041586693,169.0140845
1.025,-0.037434314,169.0140845
1.026,-0.035517831,169.0140845
1.027,-0.036476073,169.0140845
1.028,-0.039989624,169.0140845
1.029,-0.045739072,169.0140845
1.03,-0.053405003,178.5714286
1.031,-0.062029174,178.5714286
1.032,-0.07097276,178.5714286
1.033,-0.078958104,178.5714286
1.034,-0.08534638,178.5714286
1.035,-0.090137586,178.5714286
1.036,-0.09301231,178.5714286
1.037,-0.09301231,178.5714286
1.038,-0.090776414,178.5714286
1.039,-0.086624035,178.5714286
1.04,-0.080555173,178.5714286
1.041,-0.073847484,178.5714286
1.042,-0.067139795,178.5714286
1.043,-0.060432106,178.5714286
1.044,-0.054682658,178.5714286
1.045,-0.050210865,178.5714286
1.046,-0.047336141,178.5714286
1.047,-0.046697313,178.5714286
1.048,-0.048613796,178.5714286
1.049,-0.052446761,178.5714286
1.05,-0.057876795,178.5714286
1.051,-0.063945657,178.5714286
1.052,-0.070014519,178.5714286
1.053,-0.075125139,178.5714286
1.054,-0.078958104,178.5714286
1.055,-0.080235759,178.5714286
1.056,-0.079596932,178.5714286
1.057,-0.076402794,178.5714286
1.058,-0.071292174,178.5714286
1.059,-0.063945657,178.5714286
1.06,-0.055640899,178.5714286
1.061,-0.047016727,178.5714286
1.062,-0.038711969,178.5714286
1.063,-0.031365452,178.5714286
1.064,-0.025935418,178.5714286
1.065,-0.023060694,178.5714286
1.066,-0.022421867,178.5714286
1.067,-0.024657763,178.5714286
1.068,-0.029129556,178.5714286
1.069,-0.035517831,178.5714286
1.07,-0.043183762,178.5714286
1.071,-0.05148852,178.5714286
1.072,-0.059473864,178.5714286
1.073,-0.066820381,178.5714286
1.074,-0.072250415,178.5714286
1.075,-0.075763967,178.5714286
1.076,-0.076402794,178.5714286
1.077,-0.074805725,178.5714286
1.078,-0.070653346,178.5714286
1.079,-0.064903898,178.5714286
1.08,-0.057876795,178.5714286
1.081,-0.049891451,178.5714286
1.082,-0.042544934,178.5714286
1.083,-0.035837245,178.5714286
1.084,-0.030726625,178.5714286
1.085,-0.027851901,178.5714286
1.086,-0.027213073,178.5714286
1.087,-0.029129556,178.5714286
1.088,-0.033601349,178.5714286
1.089,-0.03967021,178.5714286
1.09,-0.047016727,178.5714286
1.091,-0.054682658,178.5714286
1.092,-0.062029174,178.5714286
1.093,-0.06841745,178.5714286
1.094,-0.073208656,178.5714286
1.095,-0.075763967,178.5714286
1.096,-0.075763967,178.5714286
1.097,-0.07352807,178.5714286
1.098,-0.069056277,178.5714286
1.099,-0.063306829,178.5714286
1.1,-0.05659914,178.5714286
1.101,-0.049891451,178.5714286
1.102,-0.043503176,178.5714286
1.103,-0.038392555,178.5714286
1.104,-0.034879004,178.5714286
1.105,-0.033281935,178.5714286
1.106,-0.033920762,178.5714286
1.107,-0.036795486,178.5714286
1.108,-0.041586693,178.5714286
1.109,-0.047336141,178.5714286
1.11,-0.05404383,178.5714286
1.111,-0.060751519,178.5714286
1.112,-0.066181553,178.5714286
1.113,-0.070333932,178.5714286
1.114,-0.072569829,178.5714286
1.115,-0.072569829,178.5714286
1.116,-0.070014519,178.5714286
1.117,-0.065223312,178.5714286
1.118,-0.058196209,178.5714286
1.119,-0.049891451,178.5714286
1.12,-0.040628452,178.5714286
1.121,-0.031684866,178.5714286
1.122,-0.023699522,178.5714286
1.123,-0.016991832,178.5714286
1.124,-0.01252004,178.5714286
1.125,-0.010284143,178.5714286
1.126,-0.010284143,178.5714286
1.127,-0.012839453,178.5714286
1.128,-0.017311246,178.5714286
1.129,-0.023380108,178.5714286
1.13,-0.029768383,178.5714286
1.131,-0.035517831,178.5714286
1.132,-0.039989624,178.5714286
1.133,-0.042544934,178.5714286
1.134,-0.042864348,178.5714286
1.135,-0.040628452,178.5714286
1.136,-0.035517831,178.5714286
1.137,-0.028171314,178.5714286
1.138,-0.018908315,178.5714286
1.139,-0.008367661,178.5714286
1.14,0.002492408,178.5714286
1.141,0.013352476,178.5714286
1.142,0.022934889,178.5714286
1.143,0.031239647,178.5714286
1.144,0.037308509,178.5714286
1.145,0.04082206,178.5714286
1.146,0.041780302,178.5714286
1.147,0.040502647,178.5714286
1.148,0.037308509,178.5714286
1.149,0.03315613,178.5714286
1.15,0.028684337,178.5714286
1.151,0.024212544,178.5714286
1.152,0.020698993,178.5714286
1.153,0.019101924,178.5714286
1.154,0.019421338,178.5714286
1.155,0.022934889,178.5714286
1.156,0.028364923,178.5714286
1.157,0.036350268,178.5714286
1.158,0.045932681,178.5714286
1.159,0.056153922,178.5714286
1.16,0.066055748,178.5714286
1.161,0.075318748,178.5714286
1.162,0.082984678,178.5714286
1.163,0.088734126,178.5714286
1.164,0.091928264,178.5714286
1.165,0.092567092,178.5714286
1.166,0.090650609,178.5714286
1.167,0.086178816,178.5714286
1.168,0.080109954,178.5714286
1.169,0.072444024,178.5714286
1.17,0.06445868,178.5714286
1.171,0.056473335,178.5714286
1.172,0.049446232,178.5714286
1.173,0.043696784,178.5714286
1.174,0.039863819,178.5714286
1.175,0.037947336,178.5714286
1.176,0.038586164,178.5714286
1.177,0.041141474,178.5714286
1.178,0.044974439,178.5714286
1.179,0.049446232,178.5714286
1.18,0.053918025,178.5714286
1.181,0.057431577,178.5714286
1.182,0.059028645,178.5714286
1.183,0.058070404,178.5714286
1.184,0.054556853,178.5714286
1.185,0.048168577,178.5714286
1.186,0.038905578,178.5714286
1.187,0.027406682,178.5714286
1.188,0.014630131,178.5714286
1.189,0.001534166,178.5714286
1.19,-0.011881212,178.5714286
1.191,-0.024018935,178.5714286
1.192,-0.034240176,178.5714286
1.193,-0.042864348,178.5714286
1.194,-0.04893321,178.5714286
1.195,-0.053085589,178.5714286
1.196,-0.055321485,178.5714286
1.197,-0.055321485,178.5714286
1.198,-0.053724416,178.5714286
1.199,-0.051169106,178.5714286
1.2,-0.047655555,178.5714286
1.201,-0.044461417,178.5714286
1.202,-0.04222552,178.5714286
1.203,-0.041586693,178.5714286
1.204,-0.042864348,178.5714286
1.205,-0.046697313,178.5714286
1.206,-0.052127347,178.5714286
1.207,-0.05915445,178.5714286
1.208,-0.067139795,178.5714286
1.209,-0.075125139,178.5714286
1.21,-0.082152242,178.5714286
1.211,-0.088221104,178.5714286
1.212,-0.092054069,178.5714286
1.213,-0.093970552,178.5714286
1.214,-0.09301231,178.5714286
1.215,-0.089818173,178.5714286
1.216,-0.084707552,178.5714286
1.217,-0.077680449,178.5714286
1.218,-0.069695105,178.5714286
1.219,-0.061390347,178.5714286
1.22,-0.053724416,178.5714286
1.221,-0.047655555,178.5714286
1.222,-0.043183762,178.5714286
1.223,-0.040947865,178.5714286
1.224,-0.041267279,178.5714286
1.225,-0.043822589,178.5714286
1.226,-0.048613796,178.5714286
1.227,-0.055002071,178.5714286
1.228,-0.062348588,178.5714286
1.229,-0.070014519,178.5714286
1.23,-0.077361035,178.5714286
1.231,-0.083429897,178.5714286
1.232,-0.08790169,178.5714286
1.233,-0.089818173,178.5714286
1.234,-0.089498759,178.5714286
1.235,-0.086943449,178.5714286
1.236,-0.082152242,178.5714286
1.237,-0.075763967,178.5714286
1.238,-0.06841745,178.5714286
1.239,-0.061390347,178.5714286
1.24,-0.054682658,178.5714286
1.241,-0.049572037,178.5714286
1.242,-0.0463779,178.5714286
1.243,-0.045739072,178.5714286
1.244,-0.047336141,178.5714286
1.245,-0.05148852,178.5714286
1.246,-0.057557382,178.5714286
1.247,-0.064584485,178.5714286
1.248,-0.072250415,178.5714286
1.249,-0.079596932,178.5714286
1.25,-0.085665794,178.5714286
1.251,-0.090137586,178.5714286
1.252,-0.091734655,178.5714286
1.253,-0.090457,178.5714286
1.254,-0.085665794,178.5714286
1.255,-0.077041622,178.5714286
1.256,-0.064903898,178.5714286
1.257,-0.049891451,178.5714286
1.258,-0.031684866,178.5714286
1.259,-0.011242385,178.5714286
1.26,0.010477752,178.5714286
1.261,0.033475544,178.5714286
1.262,0.056792749,178.5714286
1.263,0.079790541,178.5714286
1.264,0.103107746,178.5714286
1.265,0.125786124,178.5714286
1.266,0.149103329,178.5714286
1.267,0.172420535,178.5714286
1.268,0.197015395,178.5714286
1.269,0.222249083,178.5714286
1.27,0.248441013,178.5714286
1.271,0.27527177,178.5714286
1.272,0.30242194,178.5714286
1.273,0.330210939,178.5714286
1.274,0.357999937,178.5714286
1.275,0.38451128,178.5714286
1.276,0.408467313,178.5714286
1.277,0.428590381,178.5714286
1.278,0.443602828,178.5714286
1.279,0.452227,178.5714286
1.28,0.454143482,178.5714286
1.281,0.448394034,178.5714286
1.282,0.434978656,178.5714286
1.283,0.413897347,178.5714286
1.284,0.385469521,178.5714286
1.285,0.350972834,178.5714286
1.286,0.310726698,178.5714286
1.287,0.266967012,178.5714286
1.288,0.220652014,178.5714286
1.289,0.173378776,178.5714286
1.29,0.127063779,178.5714286
1.291,0.082984678,178.5714286
1.292,0.042419129,178.5714286
1.293,0.006644787,178.5714286
1.294,-0.023699522,178.5714286
1.295,-0.048613796,178.5714286
1.296,-0.06841745,178.5714286
1.297,-0.083110483,178.5714286
1.298,-0.093970552,178.5714286
1.299,-0.101636482,178.5714286
1.3,-0.10738593,178.5714286
1.301,-0.111538309,178.5714286
1.302,-0.115051861,178.5714286
1.303,-0.118884826,178.5714286
1.304,-0.123037205,178.5714286
1.305,-0.12687017,178.5714286
1.306,-0.131022549,178.5714286
1.307,-0.134536101,178.5714286
1.308,-0.136771997,178.5714286
1.309,-0.137410825,178.5714286
1.31,-0.136452583,178.5714286
1.311,-0.132939032,178.5714286
1.312,-0.127189584,178.5714286
1.313,-0.118884826,178.5714286
1.314,-0.108024758,178.5714286
1.315,-0.095248207,178.5714286
1.316,-0.081194001,178.5714286
1.317,-0.067139795,178.5714286
1.318,-0.053405003,178.5714286
1.319,-0.041267279,178.5714286
1.32,-0.030726625,178.5714286
1.321,-0.023060694,178.5714286
1.322,-0.018269488,178.5714286
1.323,-0.016991832,178.5714286
1.324,-0.018588901,178.5714286
1.325,-0.023060694,178.5714286
1.326,-0.02944897,178.5714286
1.327,-0.037753728,178.5714286
1.328,-0.046697313,178.5714286
1.329,-0.055321485,178.5714286
1.33,-0.063306829,178.5714286
1.331,-0.069695105,178.5714286
1.332,-0.073847484,178.5714286
1.333,-0.075444553,178.5714286
1.334,-0.074166898,178.5714286
1.335,-0.070653346,178.5714286
1.336,-0.065223312,178.5714286
1.337,-0.058835037,178.5714286
1.338,-0.052127347,178.5714286
1.339,-0.045739072,178.5714286
1.34,-0.040309038,178.5714286
1.341,-0.036476073,178.5714286
1.342,-0.034879004,178.5714286
1.343,-0.035517831,178.5714286
1.344,-0.038073141,178.5714286
1.345,-0.042544934,178.5714286
1.346,-0.048294382,178.5714286
1.347,-0.05404383,178.5714286
1.348,-0.059793278,178.5714286
1.349,-0.064584485,178.5714286
1.35,-0.067459209,178.5714286
1.351,-0.068736864,178.5714286
1.352,-0.067459209,178.5714286
1.353,-0.064265071,178.5714286
1.354,-0.05915445,178.5714286
1.355,-0.052766175,178.5714286
1.356,-0.045100244,178.5714286
1.357,-0.037753728,178.5714286
1.358,-0.030407211,178.5714286
1.359,-0.024338349,178.5714286
1.36,-0.02018597,178.5714286
1.361,-0.01763066,178.5714286
1.362,-0.01763066,178.5714286
1.363,-0.019866556,178.5714286
1.364,-0.024018935,178.5714286
1.365,-0.029768383,178.5714286
1.366,-0.036156659,178.5714286
1.367,-0.043183762,178.5714286
1.368,-0.049891451,178.5714286
1.369,-0.055640899,178.5714286
1.37,-0.060112692,178.5714286
1.371,-0.062668002,178.5714286
1.372,-0.062987416,178.5714286
1.373,-0.060751519,178.5714286
1.374,-0.056279726,178.5714286
1.375,-0.049891451,178.5714286
1.376,-0.04222552,178.5714286
1.377,-0.034240176,178.5714286
1.378,-0.026893659,178.5714286
1.379,-0.020824798,178.5714286
1.38,-0.016353005,178.5714286
1.381,-0.014117108,178.5714286
1.382,-0.014117108,178.5714286
1.383,-0.016033591,178.5714286
1.384,-0.02018597,178.5714286
1.385,-0.025296591,178.5714286
1.386,-0.031046038,178.5714286
1.387,-0.036795486,178.5714286
1.388,-0.041586693,178.5714286
1.389,-0.045100244,178.5714286
1.39,-0.046697313,178.5714286
1.391,-0.046697313,178.5714286
1.392,-0.044142003,178.5714286
1.393,-0.039989624,178.5714286
1.394,-0.033920762,178.5714286
1.395,-0.026574246,178.5714286
1.396,-0.018908315,178.5714286
1.397,-0.011561798,178.5714286
1.398,-0.005173523,178.5714286
1.399,-0.000382316,178.5714286
1.4,0.002492408,178.5714286
1.401,0.003131235,178.5714286
1.402,0.001214753,178.5714286
1.403,-0.002618213,178.5714286
1.404,-0.008367661,178.5714286
1.405,-0.01507535,178.5714286
1.406,-0.022421867,178.5714286
1.407,-0.029129556,178.5714286
1.408,-0.034879004,178.5714286
1.409,-0.039031383,178.5714286
1.41,-0.041267279,178.5714286
1.411,-0.041267279,178.5714286
1.412,-0.039031383,178.5714286
1.413,-0.03455959,178.5714286
1.414,-0.028490728,178.5714286
1.415,-0.020824798,178.5714286
1.416,-0.01252004,178.5714286
1.417,-0.004215282,178.5714286
1.418,0.002811821,178.5714286
1.419,0.007922442,178.5714286
1.42,0.01111658,178.5714286
1.421,0.011755407,178.5714286
1.422,0.010158338,178.5714286
1.423,0.006005959,178.5714286
1.424,0.000256511,178.5714286
1.425,-0.006451178,178.5714286
1.426,-0.013478281,178.5714286
1.427,-0.019547143,178.5714286
1.428,-0.024657763,178.5714286
1.429,-0.027851901,178.5714286
1.43,-0.02944897,178.5714286
1.431,-0.028490728,178.5714286
1.432,-0.025616004,178.5714286
1.433,-0.020505384,178.5714286
1.434,-0.013478281,178.5714286
1.435,-0.005492937,178.5714286
1.436,0.002811821,178.5714286
1.437,0.01111658,178.5714286
1.438,0.018463096,178.5714286
1.439,0.024212544,178.5714286
1.44,0.02804551,178.5714286
1.441,0.029642578,178.5714286
1.442,0.029003751,178.5714286
1.443,0.026129027,178.5714286
1.444,0.021976648,178.5714286
1.445,0.016866027,178.5714286
1.446,0.011755407,178.5714286
1.447,0.006964201,178.5714286
1.448,0.003770063,178.5714286
1.449,0.00185358,178.5714286
1.45,0.002172994,178.5714286
1.451,0.004089477,178.5714286
1.452,0.008241856,178.5714286
1.453,0.014310717,178.5714286
1.454,0.02133782,178.5714286
1.455,0.029003751,178.5714286
1.456,0.036350268,178.5714286
1.457,0.042738543,178.5714286
1.458,0.047849163,178.5714286
1.459,0.050723887,178.5714286
1.46,0.051362715,178.5714286
1.461,0.05008506,178.5714286
1.462,0.046571508,178.5714286
1.463,0.041780302,178.5714286
1.464,0.036350268,178.5714286
1.465,0.030281406,178.5714286
1.466,0.024531958,178.5714286
1.467,0.019421338,178.5714286
1.468,0.016546614,178.5714286
1.469,0.015588372,178.5714286
1.47,0.017504855,178.5714286
1.471,0.021976648,178.5714286
1.472,0.028684337,178.5714286
1.473,0.037308509,178.5714286
1.474,0.047210336,178.5714286
1.475,0.057431577,178.5714286
1.476,0.067652817,178.5714286
1.477,0.076596403,178.5714286
1.478,0.083623506,178.5714286
1.479,0.088734126,178.5714286
1.48,0.091289437,178.5714286
1.481,0.091289437,178.5714286
1.482,0.08905354,178.5714286
1.483,0.084581747,178.5714286
1.484,0.079471127,178.5714286
1.485,0.073721679,178.5714286
1.486,0.068291645,178.5714286
1.487,0.064139266,178.5714286
1.488,0.061264542,178.5714286
1.489,0.059986887,178.5714286
1.49,0.061264542,178.5714286
1.491,0.06445868,178.5714286
1.492,0.070208128,178.5714286
1.493,0.077554644,178.5714286
1.494,0.086178816,178.5714286
1.495,0.095122402,178.5714286
1.496,0.103746574,178.5714286
1.497,0.11109309,178.5714286
1.498,0.116842538,178.5714286
1.499,0.12035609,178.5714286
1.5,0.121953159,178.5714286
1.501,0.121314331,178.5714286
1.502,0.119078435,178.5714286
1.503,0.115245469,178.5714286
1.504,0.11109309,178.5714286
1.505,0.106940711,178.5714286
1.506,0.10342716,178.5714286
1.507,0.101191263,178.5714286
1.508,0.10087185,178.5714286
1.509,0.102788332,178.5714286
1.51,0.107579539,178.5714286
1.511,0.114287228,178.5714286
1.512,0.1229114,178.5714286
1.513,0.132813227,178.5714286
1.514,0.143353881,178.5714286
1.515,0.153255708,178.5714286
1.516,0.162199294,178.5714286
1.517,0.169545811,178.5714286
1.518,0.174656431,178.5714286
1.519,0.177211741,178.5714286
1.52,0.176892328,178.5714286
1.521,0.17369819,178.5714286
1.522,0.168268156,178.5714286
1.523,0.160602225,178.5714286
1.524,0.152297467,178.5714286
1.525,0.143673295,178.5714286
1.526,0.135687951,178.5714286
1.527,0.129299675,178.5714286
1.528,0.125147296,178.5714286
1.529,0.123230814,178.5714286
1.53,0.123869641,178.5714286
1.531,0.126744365,178.5714286
1.532,0.131535572,178.5714286
1.533,0.137604434,178.5714286
1.534,0.144312123,178.5714286
1.535,0.151339226,178.5714286
1.536,0.157408087,178.5714286
1.537,0.162199294,178.5714286
1.538,0.165393432,178.5714286
1.539,0.166032259,178.5714286
1.54,0.16443519,178.5714286
1.541,0.160282811,178.5714286
1.542,0.15421395,178.5714286
1.543,0.146548019,178.5714286
1.544,0.138243261,178.5714286
1.545,0.130257917,178.5714286
1.546,0.1229114,178.5714286
1.547,0.116842538,178.5714286
1.548,0.112690159,178.5714286
1.549,0.110454263,178.5714286
1.55,0.110134849,178.5714286
1.551,0.112051332,178.5714286
1.552,0.114926056,178.5714286
1.553,0.118759021,178.5714286
1.554,0.122591986,178.5714286
1.555,0.12546671,178.5714286
1.556,0.126744365,178.5714286
1.557,0.126105538,178.5714286
1.558,0.123230814,178.5714286
1.559,0.117481366,178.5714286
1.56,0.109496022,178.5714286
1.561,0.099274781,178.5714286
1.562,0.087456471,178.5714286
1.563,0.07467992,178.5714286
1.564,0.061264542,178.5714286
1.565,0.048807405,178.5714286
1.566,0.036989095,178.5714286
1.567,0.027406682,178.5714286
1.568,0.020060165,178.5714286
1.569,0.014949545,178.5714286
1.57,0.012394235,178.5714286
1.571,0.012074821,178.5714286
1.572,0.01367189,178.5714286
1.573,0.0162272,178.5714286
1.574,0.01878251,178.5714286
1.575,0.021018407,178.5714286
1.576,0.021657234,178.5714286
1.577,0.021018407,178.5714286
1.578,0.018143683,178.5714286
1.579,0.01367189,178.5714286
1.58,0.007283614,178.5714286
1.581,-0.000382316,178.5714286
1.582,-0.009325902,121.9512195
1.583,-0.018908315,121.9512195
1.584,-0.028810142,121.9512195
1.585,-0.037753728,121.9512195
1.586,-0.045419658,121.9512195
1.587,-0.051169106,121.9512195
1.588,-0.054363244,121.9512195
1.589,-0.055321485,121.9512195
1.59,-0.053724416,121.9512195
1.591,-0.049891451,121.9512195
1.592,-0.044780831,121.9512195
1.593,-0.039031383,121.9512195
1.594,-0.033601349,121.9512195
1.595,-0.029129556,121.9512195
1.596,-0.026574246,121.9512195
1.597,-0.026254832,121.9512195
1.598,-0.028490728,121.9512195
1.599,-0.033601349,121.9512195
1.6,-0.041267279,121.9512195
1.601,-0.050210865,121.9512195
1.602,-0.060432106,121.9512195
1.603,-0.070333932,121.9512195
1.604,-0.079916346,121.9512195
1.605,-0.088221104,121.9512195
1.606,-0.094289965,121.9512195
1.607,-0.098442344,121.9512195
1.608,-0.100039413,121.9512195
1.609,-0.099400586,121.9512195
1.61,-0.095887034,121.9512195
1.611,-0.090776414,121.9512195
1.612,-0.084068725,121.9512195
1.613,-0.077041622,121.9512195
1.614,-0.070014519,121.9512195
1.615,-0.064265071,121.9512195
1.616,-0.060432106,121.9512195
1.617,-0.058835037,121.9512195
1.618,-0.059793278,121.9512195
1.619,-0.062987416,121.9512195
1.62,-0.06841745,121.9512195
1.621,-0.075444553,121.9512195
1.622,-0.083110483,121.9512195
1.623,-0.091095828,121.9512195
1.624,-0.098122931,121.9512195
1.625,-0.104191792,121.9512195
1.626,-0.108344171,121.9512195
1.627,-0.10994124,121.9512195
1.628,-0.108982999,121.9512195
1.629,-0.105469447,121.9512195
1.63,-0.099400586,121.9512195
1.631,-0.091415241,121.9512195
1.632,-0.082471656,121.9512195
1.633,-0.07352807,121.9512195
1.634,-0.064903898,121.9512195
1.635,-0.057876795,121.9512195
1.636,-0.053085589,121.9512195
1.637,-0.050849692,121.9512195
1.638,-0.051169106,121.9512195
1.639,-0.054363244,121.9512195
1.64,-0.059793278,121.9512195
1.641,-0.066820381,121.9512195
1.642,-0.075125139,121.9512195
1.643,-0.083429897,121.9512195
1.644,-0.091415241,121.9512195
1.645,-0.098122931,121.9512195
1.646,-0.102914137,121.9512195
1.647,-0.105469447,121.9512195
1.648,-0.105469447,121.9512195
1.649,-0.102914137,121.9512195
1.65,-0.098122931,121.9512195
1.651,-0.091415241,121.9512195
1.652,-0.084068725,121.9512195
1.653,-0.076402794,121.9512195
1.654,-0.069375691,121.9512195
1.655,-0.063626243,121.9512195
1.656,-0.059793278,121.9512195
1.657,-0.058196209,121.9512195
1.658,-0.058835037,121.9512195
1.659,-0.062029174,121.9512195
1.66,-0.066820381,121.9512195
1.661,-0.073208656,121.9512195
1.662,-0.080235759,121.9512195
1.663,-0.086943449,121.9512195
1.664,-0.092692897,121.9512195
1.665,-0.096845276,121.9512195
1.666,-0.099081172,121.9512195
1.667,-0.099400586,121.9512195
1.668,-0.097484103,121.9512195
1.669,-0.093331724,121.9512195
1.67,-0.087582276,121.9512195
1.671,-0.080555173,121.9512195
1.672,-0.073208656,121.9512195
1.673,-0.066181553,121.9512195
1.674,-0.060112692,121.9512195
1.675,-0.055640899,121.9512195
1.676,-0.053085589,121.9512195
1.677,-0.052766175,121.9512195
1.678,-0.055321485,121.9512195
1.679,-0.060432106,121.9512195
1.68,-0.067459209,121.9512195
1.681,-0.075125139,121.9512195
1.682,-0.083110483,121.9512195
1.683,-0.090457,121.9512195
1.684,-0.096206448,121.9512195
1.685,-0.09972,121.9512195
1.686,-0.100678241,121.9512195
1.687,-0.099081172,121.9512195
1.688,-0.094928793,121.9512195
1.689,-0.088221104,121.9512195
1.69,-0.079916346,121.9512195
1.691,-0.070653346,121.9512195
1.692,-0.060751519,121.9512195
1.693,-0.051807934,121.9512195
1.694,-0.043822589,121.9512195
1.695,-0.037434314,121.9512195
1.696,-0.033601349,121.9512195
1.697,-0.032323694,121.9512195
1.698,-0.033601349,121.9512195
1.699,-0.037434314,121.9512195
1.7,-0.043183762,121.9512195
1.701,-0.050210865,121.9512195
1.702,-0.057876795,121.9512195
1.703,-0.065223312,121.9512195
1.704,-0.071611588,121.9512195
1.705,-0.076402794,121.9512195
1.706,-0.079277518,121.9512195
1.707,-0.079277518,121.9512195
1.708,-0.077041622,121.9512195
1.709,-0.072250415,121.9512195
1.71,-0.06586214,121.9512195
1.711,-0.058835037,121.9512195
1.712,-0.05148852,121.9512195
1.713,-0.044780831,121.9512195
1.714,-0.03967021,121.9512195
1.715,-0.036156659,121.9512195
1.716,-0.03455959,121.9512195
1.717,-0.035517831,121.9512195
1.718,-0.038392555,121.9512195
1.719,-0.042864348,121.9512195
1.72,-0.048613796,121.9512195
1.721,-0.055002071,121.9512195
1.722,-0.061070933,121.9512195
1.723,-0.066500967,121.9512195
1.724,-0.070653346,121.9512195
1.725,-0.072889243,121.9512195
1.726,-0.072889243,121.9512195
1.727,-0.070333932,121.9512195
1.728,-0.06586214,121.9512195
1.729,-0.059473864,121.9512195
1.73,-0.052446761,121.9512195
1.731,-0.044780831,121.9512195
1.732,-0.037753728,121.9512195
1.733,-0.03200428,121.9512195
1.734,-0.027851901,121.9512195
1.735,-0.025935418,121.9512195
1.736,-0.025935418,121.9512195
1.737,-0.028490728,121.9512195
1.738,-0.032962521,121.9512195
1.739,-0.039031383,121.9512195
1.74,-0.0463779,121.9512195
1.741,-0.053724416,121.9512195
1.742,-0.060751519,121.9512195
1.743,-0.066820381,121.9512195
1.744,-0.070653346,121.9512195
1.745,-0.071931001,121.9512195
1.746,-0.07097276,121.9512195
1.747,-0.067139795,121.9512195
1.748,-0.061390347,121.9512195
1.749,-0.053724416,121.9512195
1.75,-0.044780831,121.9512195
1.751,-0.035837245,121.9512195
1.752,-0.027213073,121.9512195
1.753,-0.019866556,121.9512195
1.754,-0.014436522,121.9512195
1.755,-0.011242385,121.9512195
1.756,-0.010922971,121.9512195
1.757,-0.013478281,121.9512195
1.758,-0.018269488,121.9512195
1.759,-0.025296591,121.9512195
1.76,-0.033281935,121.9512195
1.761,-0.041906107,121.9512195
1.762,-0.049891451,121.9512195
1.763,-0.05659914,121.9512195
1.764,-0.061709761,121.9512195
1.765,-0.064265071,121.9512195
1.766,-0.064584485,121.9512195
1.767,-0.062029174,121.9512195
1.768,-0.057237968,121.9512195
1.769,-0.051169106,121.9512195
1.77,-0.044142003,121.9512195
1.771,-0.037434314,121.9512195
1.772,-0.031684866,121.9512195
1.773,-0.027213073,121.9512195
1.774,-0.024977177,121.9512195
1.775,-0.024657763,121.9512195
1.776,-0.026893659,121.9512195
1.777,-0.031365452,121.9512195
1.778,-0.037434314,121.9512195
1.779,-0.044780831,121.9512195
1.78,-0.052446761,121.9512195
1.781,-0.060432106,121.9512195
1.782,-0.067459209,121.9512195
1.783,-0.072889243,121.9512195
1.784,-0.07608338,121.9512195
1.785,-0.076722208,121.9512195
1.786,-0.074486312,121.9512195
1.787,-0.069695105,121.9512195
1.788,-0.062987416,121.9512195
1.789,-0.054682658,121.9512195
1.79,-0.045419658,121.9512195
1.791,-0.036156659,121.9512195
1.792,-0.027532487,121.9512195
1.793,-0.02018597,121.9512195
1.794,-0.01507535,121.9512195
1.795,-0.01252004,121.9512195
1.796,-0.012839453,121.9512195
1.797,-0.016033591,121.9512195
1.798,-0.021144211,121.9512195
1.799,-0.028490728,121.9512195
1.8,-0.036476073,121.9512195
1.801,-0.044461417,121.9512195
1.802,-0.05148852,121.9512195
1.803,-0.057557382,121.9512195
1.804,-0.061709761,121.9512195
1.805,-0.063626243,121.9512195
1.806,-0.063306829,121.9512195
1.807,-0.060432106,121.9512195
1.808,-0.055960313,121.9512195
1.809,-0.049891451,121.9512195
1.81,-0.043183762,121.9512195
1.811,-0.036476073,121.9512195
1.812,-0.030726625,121.9512195
1.813,-0.026574246,121.9512195
1.814,-0.024338349,121.9512195
1.815,-0.024018935,121.9512195
1.816,-0.026254832,121.9512195
1.817,-0.030407211,121.9512195
1.818,-0.036476073,121.9512195
1.819,-0.043503176,121.9512195
1.82,-0.050849692,121.9512195
1.821,-0.057876795,121.9512195
1.822,-0.063945657,121.9512195
1.823,-0.06841745,121.9512195
1.824,-0.07097276,121.9512195
1.825,-0.07097276,121.9512195
1.826,-0.068736864,121.9512195
1.827,-0.064265071,121.9512195
1.828,-0.057876795,121.9512195
1.829,-0.050530279,121.9512195
1.83,-0.042864348,121.9512195
1.831,-0.035198417,121.9512195
1.832,-0.028810142,121.9512195
1.833,-0.024018935,121.9512195
1.834,-0.020824798,121.9512195
1.835,-0.02018597,121.9512195
1.836,-0.021783039,121.9512195
1.837,-0.024977177,121.9512195
1.838,-0.030087797,121.9512195
1.839,-0.035837245,121.9512195
1.84,-0.04222552,121.9512195
1.841,-0.047974968,121.9512195
1.842,-0.052766175,121.9512195
1.843,-0.055960313,121.9512195
1.844,-0.057557382,121.9512195
1.845,-0.05659914,121.9512195
1.846,-0.053724416,121.9512195
1.847,-0.048613796,121.9512195
1.848,-0.04222552,121.9512195
1.849,-0.035198417,121.9512195
1.85,-0.028490728,121.9512195
1.851,-0.022421867,121.9512195
1.852,-0.017950074,121.9512195
1.853,-0.015394764,121.9512195
1.854,-0.01507535,121.9512195
1.855,-0.016991832,121.9512195
1.856,-0.021463625,121.9512195
1.857,-0.027532487,179.6407186
1.858,-0.034879004,179.6407186
1.859,-0.042544934,179.6407186
1.86,-0.050210865,179.6407186
1.861,-0.05659914,179.6407186
1.862,-0.061709761,179.6407186
1.863,-0.064903898,179.6407186
1.864,-0.06586214,179.6407186
1.865,-0.064265071,179.6407186
1.866,-0.060432106,179.6407186
1.867,-0.054682658,179.6407186
1.868,-0.047974968,179.6407186
1.869,-0.040628452,179.6407186
1.87,-0.033601349,179.6407186
1.871,-0.026893659,179.6407186
1.872,-0.021463625,179.6407186
1.873,-0.017950074,179.6407186
1.874,-0.016672419,179.6407186
1.875,-0.017950074,179.6407186
1.876,-0.021783039,179.6407186
1.877,-0.027532487,179.6407186
1.878,-0.03455959,179.6407186
1.879,-0.042544934,179.6407186
1.88,-0.050210865,179.6407186
1.881,-0.05659914,179.6407186
1.882,-0.061390347,179.6407186
1.883,-0.063626243,179.6407186
1.884,-0.063306829,179.6407186
1.885,-0.060432106,179.6407186
1.886,-0.055321485,179.6407186
1.887,-0.048613796,179.6407186
1.888,-0.040947865,179.6407186
1.889,-0.032962521,179.6407186
1.89,-0.025296591,179.6407186
1.891,-0.018908315,179.6407186
1.892,-0.014436522,179.6407186
1.893,-0.012200626,179.6407186
1.894,-0.012200626,179.6407186
1.895,-0.014755936,179.6407186
1.896,-0.019866556,179.6407186
1.897,-0.026574246,179.6407186
1.898,-0.034240176,179.6407186
1.899,-0.042544934,179.6407186
1.9,-0.049891451,179.6407186
1.901,-0.05659914,179.6407186
1.902,-0.061390347,179.6407186
1.903,-0.064584485,179.6407186
1.904,-0.065542726,179.6407186
1.905,-0.064265071,179.6407186
1.906,-0.060432106,179.6407186
1.907,-0.055002071,179.6407186
1.908,-0.047974968,179.6407186
1.909,-0.040628452,179.6407186
1.91,-0.033601349,179.6407186
1.911,-0.027532487,179.6407186
1.912,-0.023060694,179.6407186
1.913,-0.020824798,179.6407186
1.914,-0.020824798,179.6407186
1.915,-0.023380108,179.6407186
1.916,-0.027851901,179.6407186
1.917,-0.033920762,179.6407186
1.918,-0.040628452,179.6407186
1.919,-0.047655555,179.6407186
1.92,-0.053724416,179.6407186
1.921,-0.058515623,179.6407186
1.922,-0.061390347,179.6407186
1.923,-0.062029174,179.6407186
1.924,-0.060432106,179.6407186
1.925,-0.05659914,179.6407186
1.926,-0.051169106,179.6407186
1.927,-0.044142003,179.6407186
1.928,-0.036795486,179.6407186
1.929,-0.02944897,179.6407186
1.93,-0.02274128,179.6407186
1.931,-0.017950074,179.6407186
1.932,-0.014755936,179.6407186
1.933,-0.014117108,179.6407186
1.934,-0.015714177,179.6407186
1.935,-0.019547143,179.6407186
1.936,-0.025616004,179.6407186
1.937,-0.032643107,179.6407186
1.938,-0.040628452,179.6407186
1.939,-0.048294382,179.6407186
1.94,-0.055321485,179.6407186
1.941,-0.061070933,179.6407186
1.942,-0.064265071,179.6407186
1.943,-0.065542726,179.6407186
1.944,-0.064265071,179.6407186
1.945,-0.060751519,179.6407186
1.946,-0.055640899,179.6407186
1.947,-0.049252623,179.6407186
1.948,-0.04222552,179.6407186
1.949,-0.035198417,179.6407186
1.95,-0.028810142,179.6407186
1.951,-0.023380108,179.6407186
1.952,-0.02018597,179.6407186
1.953,-0.019227729,179.6407186
1.954,-0.02018597,179.6407186
1.955,-0.023699522,179.6407186
1.956,-0.028490728,179.6407186
1.957,-0.034240176,179.6407186
1.958,-0.040628452,179.6407186
1.959,-0.046058486,179.6407186
1.96,-0.050849692,179.6407186
1.961,-0.053724416,179.6407186
1.962,-0.054363244,179.6407186
1.963,-0.053085589,179.6407186
1.964,-0.049891451,179.6407186
1.965,-0.044461417,179.6407186
1.966,-0.037434314,179.6407186
1.967,-0.030087797,179.6407186
1.968,-0.022421867,179.6407186
1.969,-0.015714177,179.6407186
1.97,-0.010284143,179.6407186
1.971,-0.007090005,179.6407186
1.972,-0.006451178,179.6407186
1.973,-0.008048247,179.6407186
1.974,-0.011881212,179.6407186
1.975,-0.018269488,179.6407186
1.976,-0.025935418,179.6407186
1.977,-0.034240176,179.6407186
1.978,-0.042864348,179.6407186
1.979,-0.050530279,179.6407186
1.98,-0.05659914,179.6407186
1.981,-0.060751519,179.6407186
1.982,-0.062668002,179.6407186
1.983,-0.061709761,179.6407186
1.984,-0.058196209,179.6407186
1.985,-0.053085589,179.6407186
1.986,-0.046058486,179.6407186
1.987,-0.038073141,179.6407186
1.988,-0.030087797,179.6407186
1.989,-0.023060694,179.6407186
1.99,-0.017311246,179.6407186
1.991,-0.013158867,179.6407186
1.992,-0.011561798,179.6407186
1.993,-0.01252004,179.6407186
1.994,-0.015714177,179.6407186
1.995,-0.020824798,179.6407186
1.996,-0.027532487,179.6407186
1.997,-0.034879004,179.6407186
1.998,-0.04222552,179.6407186
1.999,-0.048294382,179.6407186
2,-0.053405003,179.6407186
2.001,-0.056279726,179.6407186
2.002,-0.056918554,179.6407186
2.003,-0.055640899,179.6407186
2.004,-0.051807934,179.6407186
2.005,-0.0463779,179.6407186
2.006,-0.039350797,179.6407186
2.007,-0.03200428,179.6407186
2.008,-0.024657763,179.6407186
2.009,-0.018588901,179.6407186
2.01,-0.013797695,179.6407186
2.011,-0.011561798,179.6407186
2.012,-0.011561798,179.6407186
2.013,-0.013478281,179.6407186
2.014,-0.01763066,179.6407186
2.015,-0.023380108,179.6407186
2.016,-0.02944897,179.6407186
2.017,-0.035837245,179.6407186
2.018,-0.041586693,179.6407186
2.019,-0.045419658,179.6407186
2.02,-0.047655555,179.6407186
2.021,-0.047016727,179.6407186
2.022,-0.043822589,179.6407186
2.023,-0.037434314,179.6407186
2.024,-0.028490728,179.6407186
2.025,-0.01763066,179.6407186
2.026,-0.005492937,179.6407186
2.027,0.006964201,179.6407186
2.028,0.019101924,179.6407186
2.029,0.029961992,179.6407186
2.03,0.038905578,179.6407186
2.031,0.044974439,179.6407186
2.032,0.048487991,179.6407186
2.033,0.048807405,179.6407186
2.034,0.046571508,179.6407186
2.035,0.041780302,179.6407186
2.036,0.03571144,179.6407186
2.037,0.029003751,179.6407186
2.038,0.022615475,179.6407186
2.039,0.016866027,179.6407186
2.04,0.013033062,179.6407186
2.041,0.011755407,179.6407186
2.042,0.012713648,179.6407186
2.043,0.0162272,179.6407186
2.044,0.021976648,179.6407186
2.045,0.029642578,179.6407186
2.046,0.03826675,179.6407186
2.047,0.047849163,179.6407186
2.048,0.056792749,179.6407186
2.049,0.065416921,179.6407186
2.05,0.07212461,179.6407186
2.051,0.077235231,179.6407186
2.052,0.079790541,179.6407186
2.053,0.080109954,179.6407186
2.054,0.078512886,179.6407186
2.055,0.075638162,179.6407186
2.056,0.071805196,179.6407186
2.057,0.067652817,179.6407186
2.058,0.063819852,179.6407186
2.059,0.060945128,179.6407186
2.06,0.059667473,179.6407186
2.061,0.059667473,179.6407186
2.062,0.061903369,179.6407186
2.063,0.065736335,179.6407186
2.064,0.070846955,179.6407186
2.065,0.076915817,179.6407186
2.066,0.083304092,179.6407186
2.067,0.08905354,179.6407186
2.068,0.093525333,179.6407186
2.069,0.096080643,179.6407186
2.07,0.096080643,179.6407186
2.071,0.093525333,179.6407186
2.072,0.088414713,179.6407186
2.073,0.080429368,179.6407186
2.074,0.070208128,179.6407186
2.075,0.058070404,179.6407186
2.076,0.045613267,179.6407186
2.077,0.032836716,179.6407186
2.078,0.020698993,179.6407186
2.079,0.010158338,179.6407186
2.08,0.001534166,179.6407186
2.081,-0.004854109,179.6407186
2.082,-0.009006488,179.6407186
2.083,-0.010922971,179.6407186
2.084,-0.010603557,179.6407186
2.085,-0.009006488,179.6407186
2.086,-0.006770592,179.6407186
2.087,-0.004534695,179.6407186
2.088,-0.002937626,179.6407186
2.089,-0.00325704,179.6407186
2.09,-0.005173523,179.6407186
2.091,-0.009645316,179.6407186
2.092,-0.016033591,179.6407186
2.093,-0.024338349,179.6407186
2.094,-0.034240176,179.6407186
2.095,-0.044461417,179.6407186
2.096,-0.055002071,179.6407186
2.097,-0.064265071,179.6407186
2.098,-0.072250415,179.6407186
2.099,-0.078319277,179.6407186
2.1,-0.082152242,179.6407186
2.101,-0.083429897,179.6407186
2.102,-0.08279107,179.6407186
2.103,-0.079596932,179.6407186
2.104,-0.074486312,179.6407186
2.105,-0.068098036,179.6407186
2.106,-0.061390347,179.6407186
2.107,-0.054682658,179.6407186
2.108,-0.049252623,179.6407186
2.109,-0.045739072,179.6407186
2.11,-0.044142003,179.6407186
2.111,-0.045100244,179.6407186
2.112,-0.047974968,179.6407186
2.113,-0.053085589,179.6407186
2.114,-0.059793278,179.6407186
2.115,-0.066820381,179.6407186
2.116,-0.074166898,179.6407186
2.117,-0.080874587,179.6407186
2.118,-0.085985207,179.6407186
2.119,-0.089179345,179.6407186
2.12,-0.090137586,179.6407186
2.121,-0.088221104,179.6407186
2.122,-0.083749311,179.6407186
2.123,-0.077361035,179.6407186
2.124,-0.069375691,179.6407186
2.125,-0.060751519,179.6407186
2.126,-0.052446761,179.6407186
2.127,-0.044780831,179.6407186
2.128,-0.038711969,179.6407186
2.129,-0.034240176,179.6407186
2.13,-0.032643107,179.6407186
2.131,-0.033281935,179.6407186
2.132,-0.036476073,179.6407186
2.133,-0.041906107,179.6407186
2.134,-0.04893321,179.6407186
2.135,-0.056918554,179.6407186
2.136,-0.065542726,179.6407186
2.137,-0.07352807,179.6407186
2.138,-0.080555173,179.6407186
2.139,-0.085665794,179.6407186
2.14,-0.088540518,179.6407186
2.141,-0.088859931,179.6407186
2.142,-0.086624035,179.6407186
2.143,-0.082152242,179.6407186
2.144,-0.075763967,179.6407186
2.145,-0.06841745,179.6407186
2.146,-0.060751519,179.6407186
2.147,-0.053405003,179.6407186
2.148,-0.046697313,179.6407186
2.149,-0.041267279,179.6407186
2.15,-0.036795486,179.6407186
2.151,-0.032962521,179.6407186
2.152,-0.02944897,179.6407186
2.153,-0.025296591,179.6407186
2.154,-0.019866556,179.6407186
2.155,-0.012200626,179.6407186
2.156,-0.001659971,179.6407186
2.157,0.012394235,179.6407186
2.158,0.031239647,179.6407186
2.159,0.054237439,179.6407186
2.16,0.082345851,179.6407186
2.161,0.115245469,179.6407186
2.162,0.152297467,179.6407186
2.163,0.192863016,179.6407186
2.164,0.23470622,179.6407186
2.165,0.277188252,179.6407186
2.166,0.318392629,179.6407186
2.167,0.357041695,179.6407186
2.168,0.391857797,179.6407186
2.169,0.421882691,179.6407186
2.17,0.445519311,179.6407186
2.171,0.462128827,179.6407186
2.172,0.471072412,179.6407186
2.173,0.472030654,179.6407186
2.174,0.465642378,179.6407186
2.175,0.452546414,179.6407186
2.176,0.433381587,179.6407186
2.177,0.409744968,179.6407186
2.178,0.38195597,179.6407186
2.179,0.350972834,179.6407186
2.18,0.317753801,179.6407186
2.181,0.2829377,179.6407186
2.182,0.246843944,179.6407186
2.183,0.21011136,179.6407186
2.184,0.17369819,179.6407186
2.185,0.137604434,179.6407186
2.186,0.102149505,179.6407186
2.187,0.067652817,180.1801802
2.188,0.033794957,180.1801802
2.189,0.001534166,180.1801802
2.19,-0.029768383,180.1801802
2.191,-0.059473864,180.1801802
2.192,-0.086943449,180.1801802
2.193,-0.111218895,180.1801802
2.194,-0.132300204,180.1801802
2.195,-0.149548548,180.1801802
2.196,-0.162325099,180.1801802
2.197,-0.170949271,180.1801802
2.198,-0.17510165,180.1801802
2.199,-0.17510165,180.1801802
2.2,-0.170949271,180.1801802
2.201,-0.16328334,180.1801802
2.202,-0.151784445,180.1801802
2.203,-0.138049652,180.1801802
2.204,-0.123037205,180.1801802
2.205,-0.107705344,180.1801802
2.206,-0.09301231,180.1801802
2.207,-0.079916346,180.1801802
2.208,-0.069056277,180.1801802
2.209,-0.060432106,180.1801802
2.21,-0.055002071,180.1801802
2.211,-0.052127347,180.1801802
2.212,-0.05148852,180.1801802
2.213,-0.052446761,180.1801802
2.214,-0.05404383,180.1801802
2.215,-0.055960313,180.1801802
2.216,-0.057557382,180.1801802
2.217,-0.057876795,180.1801802
2.218,-0.057237968,180.1801802
2.219,-0.055321485,180.1801802
2.22,-0.051807934,180.1801802
2.221,-0.047336141,180.1801802
2.222,-0.041586693,180.1801802
2.223,-0.035517831,180.1801802
2.224,-0.02944897,180.1801802
2.225,-0.024018935,180.1801802
2.226,-0.02018597,180.1801802
2.227,-0.018588901,180.1801802
2.228,-0.018908315,180.1801802
2.229,-0.021463625,180.1801802
2.23,-0.026574246,180.1801802
2.231,-0.033281935,180.1801802
2.232,-0.041586693,180.1801802
2.233,-0.050530279,180.1801802
2.234,-0.059473864,180.1801802
2.235,-0.067459209,180.1801802
2.236,-0.074166898,180.1801802
2.237,-0.078958104,180.1801802
2.238,-0.081194001,180.1801802
2.239,-0.080874587,180.1801802
2.24,-0.077999863,180.1801802
2.241,-0.072569829,180.1801802
2.242,-0.06586214,180.1801802
2.243,-0.057876795,180.1801802
2.244,-0.049572037,180.1801802
2.245,-0.041906107,180.1801802
2.246,-0.035517831,180.1801802
2.247,-0.030726625,180.1801802
2.248,-0.028171314,180.1801802
2.249,-0.027532487,180.1801802
2.25,-0.02944897,180.1801802
2.251,-0.033281935,180.1801802
2.252,-0.038711969,180.1801802
2.253,-0.045100244,180.1801802
2.254,-0.05148852,180.1801802
2.255,-0.057237968,180.1801802
2.256,-0.061709761,180.1801802
2.257,-0.064584485,180.1801802
2.258,-0.065223312,180.1801802
2.259,-0.063306829,180.1801802
2.26,-0.059473864,180.1801802
2.261,-0.053724416,180.1801802
2.262,-0.0463779,180.1801802
2.263,-0.038711969,180.1801802
2.264,-0.031046038,180.1801802
2.265,-0.024338349,180.1801802
2.266,-0.019227729,180.1801802
2.267,-0.016353005,180.1801802
2.268,-0.015714177,180.1801802
2.269,-0.01763066,180.1801802
2.27,-0.021463625,180.1801802
2.271,-0.026893659,180.1801802
2.272,-0.033601349,180.1801802
2.273,-0.040628452,180.1801802
2.274,-0.047336141,180.1801802
2.275,-0.053085589,180.1801802
2.276,-0.056918554,180.1801802
2.277,-0.058515623,180.1801802
2.278,-0.057876795,180.1801802
2.279,-0.055002071,180.1801802
2.28,-0.049572037,180.1801802
2.281,-0.04222552,180.1801802
2.282,-0.033920762,180.1801802
2.283,-0.024977177,180.1801802
2.284,-0.016353005,180.1801802
2.285,-0.009006488,180.1801802
2.286,-0.00325704,180.1801802
2.287,0.000256511,180.1801802
2.288,0.001214753,180.1801802
2.289,-0.000382316,180.1801802
2.29,-0.004534695,180.1801802
2.291,-0.010284143,180.1801802
2.292,-0.017311246,180.1801802
2.293,-0.024657763,180.1801802
2.294,-0.031684866,180.1801802
2.295,-0.037434314,180.1801802
2.296,-0.041267279,180.1801802
2.297,-0.043183762,180.1801802
2.298,-0.042544934,180.1801802
2.299,-0.039350797,180.1801802
2.3,-0.033920762,180.1801802
2.301,-0.026254832,180.1801802
2.302,-0.01763066,180.1801802
2.303,-0.008367661,180.1801802
2.304,0.000575925,180.1801802
2.305,0.008241856,180.1801802
2.306,0.014310717,180.1801802
2.307,0.018463096,180.1801802
2.308,0.019740751,180.1801802
2.309,0.01878251,180.1801802
2.31,0.015588372,180.1801802
2.311,0.010797166,180.1801802
2.312,0.005367132,180.1801802
2.313,-6.29E-05,180.1801802
2.314,-0.005173523,180.1801802
2.315,-0.009006488,180.1801802
2.316,-0.011881212,180.1801802
2.317,-0.01252004,180.1801802
2.318,-0.011242385,180.1801802
2.319,-0.007728833,180.1801802
2.32,-0.001979385,180.1801802
2.321,0.00440889,180.1801802
2.322,0.012074821,180.1801802
2.323,0.019740751,180.1801802
2.324,0.026767854,180.1801802
2.325,0.032197889,180.1801802
2.326,0.03571144,180.1801802
2.327,0.036989095,180.1801802
2.328,0.036030854,180.1801802
2.329,0.032836716,180.1801802
2.33,0.02804551,180.1801802
2.331,0.021657234,180.1801802
2.332,0.014949545,180.1801802
2.333,0.008241856,180.1801802
2.334,0.002811821,180.1801802
2.335,-0.001021144,180.1801802
2.336,-0.00325704,180.1801802
2.337,-0.002937626,180.1801802
2.338,-6.29E-05,180.1801802
2.339,0.00440889,180.1801802
2.34,0.011755407,180.1801802
2.341,0.020060165,180.1801802
2.342,0.029323165,180.1801802
2.343,0.03826675,180.1801802
2.344,0.046252095,180.1801802
2.345,0.05264037,180.1801802
2.346,0.057431577,180.1801802
2.347,0.059667473,180.1801802
2.348,0.059667473,180.1801802
2.349,0.057431577,180.1801802
2.35,0.053279198,180.1801802
2.351,0.047849163,180.1801802
2.352,0.042099716,180.1801802
2.353,0.036989095,180.1801802
2.354,0.032836716,180.1801802
2.355,0.029961992,180.1801802
2.356,0.029323165,180.1801802
2.357,0.030920233,180.1801802
2.358,0.034753199,180.1801802
2.359,0.040502647,180.1801802
2.36,0.04752975,180.1801802
2.361,0.055515094,180.1801802
2.362,0.063819852,180.1801802
2.363,0.071485783,180.1801802
2.364,0.077874058,180.1801802
2.365,0.082665265,180.1801802
2.366,0.085539989,180.1801802
2.367,0.086178816,180.1801802
2.368,0.084581747,180.1801802
2.369,0.08138761,180.1801802
2.37,0.076276989,180.1801802
2.371,0.070527541,180.1801802
2.372,0.06445868,180.1801802
2.373,0.059028645,180.1801802
2.374,0.05519568,180.1801802
2.375,0.052959784,180.1801802
2.376,0.053279198,180.1801802
2.377,0.056153922,180.1801802
2.378,0.061264542,180.1801802
2.379,0.068611059,180.1801802
2.38,0.077874058,180.1801802
2.381,0.088414713,180.1801802
2.382,0.099274781,180.1801802
2.383,0.109496022,180.1801802
2.384,0.11780078,180.1801802
2.385,0.124189055,180.1801802
2.386,0.12802202,180.1801802
2.387,0.128980262,180.1801802
2.388,0.127702607,180.1801802
2.389,0.123869641,180.1801802
2.39,0.119078435,180.1801802
2.391,0.113328987,180.1801802
2.392,0.107898953,180.1801802
2.393,0.10342716,180.1801802
2.394,0.100233022,180.1801802
2.395,0.098955367,180.1801802
2.396,0.099594195,180.1801802
2.397,0.103107746,180.1801802
2.398,0.10853778,180.1801802
2.399,0.116203711,180.1801802
2.4,0.125147296,180.1801802
2.401,0.13472971,180.1801802
2.402,0.144312123,180.1801802
2.403,0.153575122,180.1801802
2.404,0.161241053,180.1801802
2.405,0.166990501,180.1801802
2.406,0.170504052,180.1801802
2.407,0.17114288,180.1801802
2.408,0.169865225,180.1801802
2.409,0.166032259,180.1801802
2.41,0.160921639,180.1801802
2.411,0.155172191,180.1801802
2.412,0.149422743,180.1801802
2.413,0.144631537,180.1801802
2.414,0.140798571,180.1801802
2.415,0.138882089,180.1801802
2.416,0.139201502,180.1801802
2.417,0.141437399,180.1801802
2.418,0.146228605,180.1801802
2.419,0.152936295,180.1801802
2.42,0.160602225,180.1801802
2.421,0.168906983,180.1801802
2.422,0.176572914,180.1801802
2.423,0.183280603,180.1801802
2.424,0.18807181,180.1801802
2.425,0.190946534,180.1801802
2.426,0.191265947,180.1801802
2.427,0.189349465,180.1801802
2.428,0.185197086,180.1801802
2.429,0.179128224,180.1801802
2.43,0.171462293,180.1801802
2.431,0.163476949,180.1801802
2.432,0.155491605,180.1801802
2.433,0.148464502,180.1801802
2.434,0.14239564,180.1801802
2.435,0.138243261,180.1801802
2.436,0.136007365,180.1801802
2.437,0.135687951,180.1801802
2.438,0.136965606,180.1801802
2.439,0.139520916,180.1801802
2.44,0.142715054,180.1801802
2.441,0.146228605,180.1801802
2.442,0.149103329,180.1801802
2.443,0.150700398,180.1801802
2.444,0.150700398,180.1801802
2.445,0.148783916,180.1801802
2.446,0.144312123,180.1801802
2.447,0.137923847,180.1801802
2.448,0.129619089,180.1801802
2.449,0.119717262,180.1801802
2.45,0.109176608,180.1801802
2.451,0.098955367,180.1801802
2.452,0.089372954,180.1801802
2.453,0.081068196,180.1801802
2.454,0.074999334,180.1801802
2.455,0.071166369,180.1801802
2.456,0.069888714,180.1801802
2.457,0.070527541,180.1801802
2.458,0.073082851,180.1801802
2.459,0.076276989,180.1801802
2.46,0.080109954,180.1801802
2.461,0.082984678,180.1801802
2.462,0.084581747,180.1801802
2.463,0.08394292,180.1801802
2.464,0.081068196,180.1801802
2.465,0.075638162,180.1801802
2.466,0.067972231,180.1801802
2.467,0.05775099,180.1801802
2.468,0.045932681,180.1801802
2.469,0.032836716,180.1801802
2.47,0.019101924,180.1801802
2.471,0.005686545,180.1801802
2.472,-0.006131764,180.1801802
2.473,-0.016672419,180.1801802
2.474,-0.024338349,180.1801802
2.475,-0.02944897,180.1801802
2.476,-0.031365452,180.1801802
2.477,-0.030726625,180.1801802
2.478,-0.027851901,180.1801802
2.479,-0.023380108,180.1801802
2.48,-0.01763066,180.1801802
2.481,-0.011881212,180.1801802
2.482,-0.006770592,180.1801802
2.483,-0.00325704,180.1801802
2.484,-0.002298799,180.1801802
2.485,-0.003895868,180.1801802
2.486,-0.007728833,180.1801802
2.487,-0.014117108,180.1801802
2.488,-0.022421867,180.1801802
2.489,-0.032323694,180.1801802
2.49,-0.043183762,180.1801802
2.491,-0.053724416,180.1801802
2.492,-0.062987416,180.1801802
2.493,-0.070653346,180.1801802
2.494,-0.07608338,180.1801802
2.495,-0.079277518,180.1801802
2.496,-0.079916346,180.1801802
2.497,-0.077999863,180.1801802
2.498,-0.074166898,180.1801802
2.499,-0.06841745,180.1801802
2.5,-0.062348588,180.1801802
2.501,-0.056279726,180.1801802
2.502,-0.051169106,180.1801802
2.503,-0.047336141,180.1801802
2.504,-0.045739072,180.1801802
2.505,-0.046058486,180.1801802
2.506,-0.048613796,180.1801802
2.507,-0.053405003,180.1801802
2.508,-0.059473864,180.1801802
2.509,-0.066820381,180.1801802
2.51,-0.074486312,180.1801802
2.511,-0.081832828,180.1801802
2.512,-0.08790169,180.1801802
2.513,-0.092373483,180.1801802
2.514,-0.094609379,180.1801802
2.515,-0.094289965,180.1801802
2.516,-0.092054069,180.1801802
2.517,-0.087582276,180.1801802
2.518,-0.081513415,180.1801802
2.519,-0.074805725,180.1801802
2.52,-0.067459209,180.1801802
2.521,-0.061070933,180.1801802
2.522,-0.055640899,180.1801802
2.523,-0.052127347,180.1801802
2.524,-0.050530279,180.1801802
2.525,-0.05148852,180.1801802
2.526,-0.054682658,180.1801802
2.527,-0.059793278,180.1801802
2.528,-0.066500967,180.1801802
2.529,-0.074486312,180.1801802
2.53,-0.082471656,180.1801802
2.531,-0.090457,180.1801802
2.532,-0.097164689,180.1801802
2.533,-0.102594724,180.1801802
2.534,-0.105469447,180.1801802
2.535,-0.106108275,180.1801802
2.536,-0.104191792,180.1801802
2.537,-0.100358827,180.1801802
2.538,-0.095248207,180.1801802
2.539,-0.088859931,180.1801802
2.54,-0.083110483,180.1801802
2.541,-0.077680449,180.1801802
2.542,-0.073847484,180.1801802
2.543,-0.071292174,180.1801802
2.544,-0.070653346,180.1801802
2.545,-0.071931001,180.1801802
2.546,-0.074486312,180.1801802
2.547,-0.078638691,180.1801802
2.548,-0.083749311,180.1801802
2.549,-0.089179345,180.1801802
2.55,-0.093970552,180.1801802
2.551,-0.098442344,180.1801802
2.552,-0.100997655,180.1801802
2.553,-0.101955896,180.1801802
2.554,-0.100997655,180.1801802
2.555,-0.097484103,180.1801802
2.556,-0.092373483,180.1801802
2.557,-0.08534638,180.1801802
2.558,-0.077680449,180.1801802
2.559,-0.069375691,180.1801802
2.56,-0.062029174,180.1801802
2.561,-0.055640899,180.1801802
2.562,-0.051169106,180.1801802
2.563,-0.04893321,180.1801802
2.564,-0.049252623,180.1801802
2.565,-0.05148852,180.1801802
2.566,-0.055640899,180.1801802
2.567,-0.061390347,180.1801802
2.568,-0.068098036,180.1801802
2.569,-0.074805725,180.1801802
2.57,-0.080874587,180.1801802
2.571,-0.085985207,180.1801802
2.572,-0.089818173,180.1801802
2.573,-0.091095828,180.1801802
2.574,-0.090457,180.1801802
2.575,-0.087262862,180.1801802
2.576,-0.081832828,180.1801802
2.577,-0.074805725,180.1801802
2.578,-0.066820381,180.1801802
2.579,-0.05915445,180.1801802
2.58,-0.052127347,180.1801802
2.581,-0.046697313,180.1801802
2.582,-0.043183762,180.1801802
2.583,-0.041906107,180.1801802
2.584,-0.042864348,180.1801802
2.585,-0.045739072,180.1801802
2.586,-0.050530279,180.1801802
2.587,-0.056279726,180.1801802
2.588,-0.062987416,180.1801802
2.589,-0.069375691,180.1801802
2.59,-0.075444553,180.1801802
2.591,-0.080555173,180.1801802
2.592,-0.083429897,180.1801802
2.593,-0.084068725,180.1801802
2.594,-0.082471656,180.1801802
2.595,-0.077999863,180.1801802
2.596,-0.071611588,180.1801802
2.597,-0.063945657,180.1801802
2.598,-0.055640899,180.1801802
2.599,-0.047974968,180.1801802
2.6,-0.041267279,180.1801802
2.601,-0.036156659,180.1801802
2.602,-0.033920762,180.1801802
2.603,-0.033920762,180.1801802
2.604,-0.036156659,180.1801802
2.605,-0.040628452,180.1801802
2.606,-0.0463779,180.1801802
2.607,-0.053405003,180.1801802
2.608,-0.060751519,180.1801802
2.609,-0.067459209,180.1801802
2.61,-0.07352807,180.1801802
2.611,-0.077680449,180.1801802
2.612,-0.079916346,180.1801802
2.613,-0.079277518,180.1801802
2.614,-0.076402794,180.1801802
2.615,-0.07097276,180.1801802
2.616,-0.063945657,180.1801802
2.617,-0.055321485,180.1801802
2.618,-0.0463779,180.1801802
2.619,-0.037434314,180.1801802
2.62,-0.029768383,180.1801802
2.621,-0.024018935,180.1801802
2.622,-0.020505384,180.1801802
2.623,-0.019547143,180.1801802
2.624,-0.021144211,180.1801802
2.625,-0.024977177,180.1801802
2.626,-0.031046038,180.1801802
2.627,-0.038073141,180.1801802
2.628,-0.046058486,180.1801802
2.629,-0.054363244,180.1801802
2.63,-0.061709761,180.1801802
2.631,-0.067778622,180.1801802
2.632,-0.071931001,180.1801802
2.633,-0.073847484,180.1801802
2.634,-0.072889243,180.1801802
2.635,-0.069375691,180.1801802
2.636,-0.063945657,180.1801802
2.637,-0.056918554,180.1801802
2.638,-0.049572037,180.1801802
2.639,-0.042864348,180.1801802
2.64,-0.0371149,180.1801802
2.641,-0.032962521,180.1801802
2.642,-0.031046038,180.1801802
2.643,-0.031046038,180.1801802
2.644,-0.033601349,180.1801802
2.645,-0.037753728,180.1801802
2.646,-0.043183762,180.1801802
2.647,-0.049572037,180.1801802
2.648,-0.056279726,180.1801802
2.649,-0.062029174,180.1801802
2.65,-0.067139795,180.1801802
2.651,-0.070653346,180.1801802
2.652,-0.071931001,180.1801802
2.653,-0.070653346,180.1801802
2.654,-0.067139795,180.1801802
2.655,-0.061709761,180.1801802
2.656,-0.054682658,180.1801802
2.657,-0.047016727,180.1801802
2.658,-0.039350797,180.1801802
2.659,-0.032643107,180.1801802
2.66,-0.026893659,180.1801802
2.661,-0.023060694,180.1801802
2.662,-0.021463625,180.1801802
2.663,-0.022102453,180.1801802
2.664,-0.024977177,180.1801802
2.665,-0.030087797,180.1801802
2.666,-0.036476073,180.1801802
2.667,-0.043822589,180.1801802
2.668,-0.051169106,180.1801802
2.669,-0.057876795,180.1801802
2.67,-0.063306829,180.1801802
2.671,-0.067139795,180.1801802
2.672,-0.069056277,180.1801802
2.673,-0.068736864,180.1801802
2.674,-0.066181553,180.1801802
2.675,-0.061709761,180.1801802
2.676,-0.055960313,180.1801802
2.677,-0.049252623,180.1801802
2.678,-0.042544934,180.1801802
2.679,-0.036476073,180.1801802
2.68,-0.03200428,180.1801802
2.681,-0.029129556,180.1801802
2.682,-0.028490728,180.1801802
2.683,-0.030087797,180.1801802
2.684,-0.033601349,180.1801802
2.685,-0.038392555,180.1801802
2.686,-0.044142003,180.1801802
2.687,-0.049891451,180.1801802
2.688,-0.055002071,180.1801802
2.689,-0.05915445,180.1801802
2.69,-0.062029174,180.1801802
2.691,-0.062668002,180.1801802
2.692,-0.061390347,180.1801802
2.693,-0.058196209,180.1801802
2.694,-0.052766175,180.1801802
2.695,-0.046058486,180.1801802
2.696,-0.038711969,180.1801802
2.697,-0.031365452,180.1801802
2.698,-0.024657763,180.1801802
2.699,-0.019547143,180.1801802
2.7,-0.016033591,180.1801802
2.701,-0.014755936,180.1801802
2.702,-0.016033591,180.1801802
2.703,-0.019866556,180.1801802
2.704,-0.026254832,180.1801802
2.705,-0.034240176,180.1801802
2.706,-0.043183762,180.1801802
2.707,-0.052446761,180.1801802
2.708,-0.060751519,180.1801802
2.709,-0.067778622,180.1801802
2.71,-0.072889243,180.1801802
2.711,-0.075444553,180.1801802
2.712,-0.075444553,180.1801802
2.713,-0.072889243,180.1801802
2.714,-0.067459209,180.1801802
2.715,-0.060432106,180.1801802
2.716,-0.052127347,180.1801802
2.717,-0.043822589,180.1801802
2.718,-0.035837245,180.1801802
2.719,-0.029129556,180.1801802
2.72,-0.024338349,180.1801802
2.721,-0.021783039,180.1801802
2.722,-0.021783039,180.1801802
2.723,-0.024018935,180.1801802
2.724,-0.028490728,180.1801802
2.725,-0.034240176,180.1801802
2.726,-0.041267279,180.1801802
2.727,-0.048613796,180.1801802
2.728,-0.055321485,180.1801802
2.729,-0.060751519,180.1801802
2.73,-0.064584485,180.1801802
2.731,-0.066181553,180.1801802
2.732,-0.065542726,180.1801802
2.733,-0.062668002,180.1801802
2.734,-0.057876795,180.1801802
2.735,-0.05148852,180.1801802
2.736,-0.044461417,180.1801802
2.737,-0.037753728,180.1801802
2.738,-0.03200428,180.1801802
2.739,-0.027532487,180.1801802
2.74,-0.024657763,180.1801802
2.741,-0.024338349,180.1801802
2.742,-0.025935418,180.1801802
2.743,-0.029129556,180.1801802
2.744,-0.034240176,180.1801802
2.745,-0.040309038,180.1801802
2.746,-0.047016727,180.1801802
2.747,-0.053405003,180.1801802
2.748,-0.05915445,180.1801802
2.749,-0.063306829,180.1801802
2.75,-0.065542726,180.1801802
2.751,-0.065542726,180.1801802
2.752,-0.063306829,180.1801802
2.753,-0.058835037,180.1801802
2.754,-0.052127347,180.1801802
2.755,-0.044461417,180.1801802
2.756,-0.036476073,180.1801802
2.757,-0.028810142,180.1801802
2.758,-0.022421867,180.1801802
2.759,-0.01763066,180.1801802
2.76,-0.01507535,180.1801802
2.761,-0.014755936,180.1801802
2.762,-0.016991832,180.1801802
2.763,-0.021463625,180.1801802
2.764,-0.027532487,180.1801802
2.765,-0.034879004,180.1801802
2.766,-0.042864348,180.1801802
2.767,-0.050210865,180.1801802
2.768,-0.056279726,180.1801802
2.769,-0.060432106,180.1801802
2.77,-0.062348588,180.1801802
2.771,-0.062029174,180.1801802
2.772,-0.05915445,180.1801802
2.773,-0.054363244,180.1801802
2.774,-0.048294382,180.1801802
2.775,-0.041267279,180.1801802
2.776,-0.033920762,180.1801802
2.777,-0.026893659,180.1801802
2.778,-0.021463625,180.1801802
2.779,-0.01763066,180.1801802
2.78,-0.016033591,180.1801802
2.781,-0.016672419,180.1801802
2.782,-0.019866556,180.1801802
2.783,-0.024657763,180.1801802
2.784,-0.031046038,180.1801802
2.785,-0.038073141,180.1801802
2.786,-0.045419658,180.1801802
2.787,-0.051807934,180.1801802
2.788,-0.057557382,180.1801802
2.789,-0.061390347,180.1801802
2.79,-0.063306829,180.1801802
2.791,-0.062348588,180.1801802
2.792,-0.059473864,180.1801802
2.793,-0.05404383,180.1801802
2.794,-0.047336141,180.1801802
2.795,-0.039989624,180.1801802
2.796,-0.032643107,180.1801802
2.797,-0.025935418,180.1801802
2.798,-0.021144211,180.1801802
2.799,-0.018588901,180.1801802
2.8,-0.018588901,180.1801802
2.801,-0.021144211,180.1801802
2.802,-0.025935418,180.1801802
2.803,-0.032962521,180.1801802
2.804,-0.041267279,180.1801802
2.805,-0.049891451,180.1801802
2.806,-0.058196209,180.1801802
2.807,-0.065542726,180.1801802
2.808,-0.07097276,180.1801802
2.809,-0.074486312,180.1801802
2.81,-0.075444553,180.1801802
2.811,-0.073847484,180.1801802
2.812,-0.070014519,180.1801802
2.813,-0.064265071,180.1801802
2.814,-0.056918554,180.1801802
2.815,-0.04893321,180.1801802
2.816,-0.040947865,180.1801802
2.817,-0.033920762,180.1801802
2.818,-0.028490728,180.1801802
2.819,-0.025616004,180.1801802
2.82,-0.024977177,180.1801802
2.821,-0.026893659,180.1801802
2.822,-0.031046038,180.1801802
2.823,-0.037434314,180.1801802
2.824,-0.044780831,180.1801802
2.825,-0.052446761,180.1801802
2.826,-0.059793278,180.1801802
2.827,-0.066181553,180.1801802
2.828,-0.07097276,180.1801802
2.829,-0.073847484,180.1801802
2.83,-0.073847484,180.1801802
2.831,-0.071931001,180.1801802
2.832,-0.067459209,180.1801802
2.833,-0.061070933,180.1801802
2.834,-0.053724416,180.1801802
2.835,-0.045739072,180.1801802
2.836,-0.038392555,180.1801802
2.837,-0.03200428,180.1801802
2.838,-0.027213073,180.1801802
2.839,-0.024977177,180.1801802
2.84,-0.024977177,180.1801802
2.841,-0.027532487,180.1801802
2.842,-0.032323694,180.1801802
2.843,-0.038711969,180.1801802
2.844,-0.046058486,180.1801802
2.845,-0.053724416,180.1801802
2.846,-0.060751519,180.1801802
2.847,-0.066820381,180.1801802
2.848,-0.07097276,180.1801802
2.849,-0.073208656,180.1801802
2.85,-0.072889243,180.1801802
2.851,-0.070333932,180.1801802
2.852,-0.065223312,180.1801802
2.853,-0.058835037,180.1801802
2.854,-0.051169106,180.1801802
2.855,-0.043822589,180.1801802
2.856,-0.0371149,180.1801802
2.857,-0.031684866,180.1801802
2.858,-0.028810142,180.1801802
2.859,-0.028171314,180.1801802
2.86,-0.030087797,180.1801802
2.861,-0.03455959,180.1801802
2.862,-0.040947865,180.1801802
2.863,-0.048294382,180.1801802
2.864,-0.05659914,180.1801802
2.865,-0.064265071,180.1801802
2.866,-0.07097276,180.1801802
2.867,-0.076402794,180.1801802
2.868,-0.079916346,180.1801802
2.869,-0.081194001,180.1801802
2.87,-0.080235759,180.1801802
2.871,-0.077041622,180.1801802
2.872,-0.071611588,180.1801802
2.873,-0.065223312,180.1801802
2.874,-0.057557382,180.1801802
2.875,-0.049891451,180.1801802
2.876,-0.042864348,180.1801802
2.877,-0.0371149,180.1801802
2.878,-0.033601349,180.1801802
2.879,-0.032323694,180.1801802
2.88,-0.033601349,180.1801802
2.881,-0.0371149,180.1801802
2.882,-0.042544934,180.1801802
2.883,-0.04893321,180.1801802
2.884,-0.055960313,180.1801802
2.885,-0.062348588,180.1801802
2.886,-0.068098036,180.1801802
2.887,-0.072250415,180.1801802
2.888,-0.074486312,180.1801802
2.889,-0.074166898,180.1801802
2.89,-0.071611588,180.1801802
2.891,-0.066820381,180.1801802
2.892,-0.060112692,180.1801802
2.893,-0.052766175,180.1801802
2.894,-0.044780831,180.1801802
2.895,-0.037434314,180.1801802
2.896,-0.031684866,180.1801802
2.897,-0.027532487,180.1801802
2.898,-0.025935418,180.1801802
2.899,-0.026574246,180.1801802
2.9,-0.02944897,180.1801802
2.901,-0.03455959,180.1801802
2.902,-0.041267279,180.1801802
2.903,-0.04893321,180.1801802
2.904,-0.05659914,180.1801802
2.905,-0.063306829,180.1801802
2.906,-0.068736864,180.1801802
2.907,-0.072569829,180.1801802
2.908,-0.073847484,180.1801802
2.909,-0.072889243,180.1801802
2.91,-0.069375691,180.1801802
2.911,-0.063306829,180.1801802
2.912,-0.055960313,180.1801802
2.913,-0.047336141,180.1801802
2.914,-0.038711969,180.1801802
2.915,-0.030726625,180.1801802
2.916,-0.024018935,180.1801802
2.917,-0.019547143,180.1801802
2.918,-0.01763066,180.1801802
2.919,-0.018269488,180.1801802
2.92,-0.021463625,180.1801802
2.921,-0.026893659,180.1801802
2.922,-0.033920762,180.1801802
2.923,-0.041267279,180.1801802
2.924,-0.04893321,180.1801802
2.925,-0.055640899,180.1801802
2.926,-0.061070933,180.1801802
2.927,-0.064584485,180.1801802
2.928,-0.06586214,180.1801802
2.929,-0.064903898,180.1801802
2.93,-0.061070933,180.1801802
2.931,-0.055321485,180.1801802
2.932,-0.047974968,180.1801802
2.933,-0.03967021,180.1801802
2.934,-0.031684866,180.1801802
2.935,-0.024657763,180.1801802
2.936,-0.019227729,180.1801802
2.937,-0.015714177,180.1801802
2.938,-0.01507535,180.1801802
2.939,-0.017311246,180.1801802
2.94,-0.021463625,180.1801802
2.941,-0.028171314,180.1801802
2.942,-0.035837245,180.1801802
2.943,-0.044461417,180.1801802
2.944,-0.052446761,180.1801802
2.945,-0.060112692,180.1801802
2.946,-0.06586214,180.1801802
2.947,-0.069695105,180.1801802
2.948,-0.07097276,180.1801802
2.949,-0.069695105,180.1801802
2.95,-0.06586214,180.1801802
2.951,-0.059793278,180.1801802
2.952,-0.052446761,180.1801802
2.953,-0.044461417,180.1801802
2.954,-0.036476073,180.1801802
2.955,-0.029768383,180.1801802
2.956,-0.024338349,180.1801802
2.957,-0.021144211,180.1801802
2.958,-0.020505384,180.1801802
2.959,-0.022421867,180.1801802
2.96,-0.026574246,180.1801802
2.961,-0.032323694,180.1801802
2.962,-0.03967021,180.1801802
2.963,-0.047336141,180.1801802
2.964,-0.054682658,180.1801802
2.965,-0.061070933,180.1801802
2.966,-0.065223312,180.1801802
2.967,-0.067459209,180.1801802
2.968,-0.066820381,180.1801802
2.969,-0.063945657,180.1801802
2.97,-0.058515623,180.1801802
2.971,-0.051807934,180.1801802
2.972,-0.044142003,180.1801802
2.973,-0.036156659,180.1801802
2.974,-0.028810142,180.1801802
2.975,-0.023060694,180.1801802
2.976,-0.019227729,180.1801802
2.977,-0.01763066,180.1801802
2.978,-0.018269488,180.1801802
2.979,-0.021463625,180.1801802
2.98,-0.026574246,180.1801802
2.981,-0.033281935,180.1801802
2.982,-0.040947865,180.1801802
2.983,-0.04893321,180.1801802
2.984,-0.056279726,180.1801802
2.985,-0.062348588,180.1801802
2.986,-0.067139795,180.1801802
2.987,-0.069056277,180.1801802
2.988,-0.068736864,180.1801802
2.989,-0.065542726,180.1801802
2.99,-0.060432106,180.1801802
2.991,-0.053405003,180.1801802
2.992,-0.045419658,180.1801802
2.993,-0.037753728,180.1801802
2.994,-0.031046038,180.1801802
2.995,-0.025935418,180.1801802
2.996,-0.023380108,180.1801802
2.997,-0.023380108,180.1801802
2.998,-0.026574246,180.1801802
2.999,-0.032323694,180.1801802
3,-0.040309038,180.1801802
3.001,-0.049572037,180.1801802
3.002,-0.059473864,180.1801802
3.003,-0.068736864,180.1801802
3.004,-0.076722208,180.1801802
3.005,-0.082471656,180.1801802
3.006,-0.08534638,180.1801802
3.007,-0.08534638,180.1801802
3.008,-0.082471656,180.1801802
3.009,-0.077041622,180.1801802
3.01,-0.069375691,180.1801802
3.011,-0.060112692,180.1801802
3.012,-0.050530279,180.1801802
3.013,-0.041267279,180.1801802
3.014,-0.033281935,180.1801802
3.015,-0.026574246,180.1801802
3.016,-0.021783039,180.1801802
3.017,-0.019547143,180.1801802
3.018,-0.019866556,180.1801802
3.019,-0.02274128,180.1801802
3.02,-0.027532487,180.1801802
3.021,-0.034240176,180.1801802
3.022,-0.041586693,180.1801802
3.023,-0.04893321,180.1801802
3.024,-0.055002071,180.1801802
3.025,-0.059473864,180.1801802
3.026,-0.061709761,180.1801802
3.027,-0.060751519,180.1801802
3.028,-0.056918554,180.1801802
3.029,-0.050210865,180.1801802
3.03,-0.040947865,180.1801802
3.031,-0.030407211,180.1801802
3.032,-0.018908315,180.1801802
3.033,-0.007409419,180.1801802
3.034,0.003131235,180.1801802
3.035,0.011435993,180.1801802
3.036,0.017824269,180.1801802
3.037,0.021657234,180.1801802
3.038,0.022615475,180.1801802
3.039,0.020698993,180.1801802
3.04,0.016866027,180.1801802
3.041,0.011755407,180.1801802
3.042,0.006005959,180.1801802
3.043,0.000895339,180.1801802
3.044,-0.003895868,180.1801802
3.045,-0.006770592,180.1801802
3.046,-0.007409419,180.1801802
3.047,-0.00581235,180.1801802
3.048,-0.001979385,180.1801802
3.049,0.00440889,180.1801802
3.05,0.012394235,180.1801802
3.051,0.021976648,180.1801802
3.052,0.031559061,180.1801802
3.053,0.040502647,180.1801802
3.054,0.048487991,180.1801802
3.055,0.054556853,180.1801802
3.056,0.058389818,180.1801802
3.057,0.059667473,180.1801802
3.058,0.058709232,180.1801802
3.059,0.055834508,180.1801802
3.06,0.051682129,180.1801802
3.061,0.046571508,180.1801802
3.062,0.041460888,180.1801802
3.063,0.037308509,180.1801802
3.064,0.034114371,180.1801802
3.065,0.032517302,180.1801802
3.066,0.03315613,180.1801802
3.067,0.036350268,180.1801802
3.068,0.041460888,180.1801802
3.069,0.048487991,180.1801802
3.07,0.056473335,180.1801802
3.071,0.065097507,180.1801802
3.072,0.073402265,180.1801802
3.073,0.080109954,180.1801802
3.074,0.084901161,180.1801802
3.075,0.087456471,180.1801802
3.076,0.086817644,180.1801802
3.077,0.083304092,180.1801802
3.078,0.076596403,180.1801802
3.079,0.06701399,180.1801802
3.08,0.055515094,180.1801802
3.081,0.042738543,180.1801802
3.082,0.029642578,180.1801802
3.083,0.017185441,180.1801802
3.084,0.005686545,180.1801802
3.085,-0.002937626,180.1801802
3.086,-0.009645316,180.1801802
3.087,-0.013158867,180.1801802
3.088,-0.014436522,180.1801802
3.089,-0.013478281,180.1801802
3.09,-0.011242385,180.1801802
3.091,-0.007728833,180.1801802
3.092,-0.004215282,180.1801802
3.093,-0.001340558,180.1801802
3.094,0.000256511,180.1801802
3.095,0.000256511,180.1801802
3.096,-0.001659971,180.1801802
3.097,-0.00581235,180.1801802
3.098,-0.011881212,68.96551724
3.099,-0.019547143,68.96551724
3.1,-0.028171314,68.96551724
3.101,-0.0371149,68.96551724
3.102,-0.045739072,68.96551724
3.103,-0.053724416,68.96551724
3.104,-0.060112692,68.96551724
3.105,-0.064903898,68.96551724
3.106,-0.067139795,68.96551724
3.107,-0.067139795,68.96551724
3.108,-0.064903898,68.96551724
3.109,-0.060751519,68.96551724
3.11,-0.055321485,68.96551724
3.111,-0.049891451,68.96551724
3.112,-0.044780831,68.96551724
3.113,-0.040947865,68.96551724
3.114,-0.039350797,68.96551724
3.115,-0.03967021,68.96551724
3.116,-0.042864348,68.96551724
3.117,-0.048294382,68.96551724
3.118,-0.055321485,68.96551724
3.119,-0.063945657,68.96551724
3.12,-0.072889243,68.96551724
3.121,-0.081832828,68.96551724
3.122,-0.089498759,68.96551724
3.123,-0.095567621,68.96551724
3.124,-0.09972,68.96551724
3.125,-0.101317068,68.96551724
3.126,-0.100358827,68.96551724
3.127,-0.096845276,68.96551724
3.128,-0.091415241,68.96551724
3.129,-0.084388138,68.96551724
3.13,-0.076402794,68.96551724
3.131,-0.06841745,68.96551724
3.132,-0.060751519,68.96551724
3.133,-0.05404383,68.96551724
3.134,-0.049891451,68.96551724
3.135,-0.047655555,68.96551724
3.136,-0.048294382,68.96551724
3.137,-0.05148852,68.96551724
3.138,-0.05659914,68.96551724
3.139,-0.063306829,68.96551724
3.14,-0.07097276,68.96551724
3.141,-0.078319277,68.96551724
3.142,-0.085026966,68.96551724
3.143,-0.090137586,68.96551724
3.144,-0.093651138,68.96551724
3.145,-0.094928793,68.96551724
3.146,-0.093651138,68.96551724
3.147,-0.090457,68.96551724
3.148,-0.085026966,68.96551724
3.149,-0.078638691,68.96551724
3.15,-0.07097276,68.96551724
3.151,-0.063306829,68.96551724
3.152,-0.056279726,68.96551724
3.153,-0.050849692,68.96551724
3.154,-0.046697313,68.96551724
3.155,-0.044780831,68.96551724
3.156,-0.044461417,68.96551724
3.157,-0.045739072,68.96551724
3.158,-0.047655555,68.96551724
3.159,-0.049252623,68.96551724
3.16,-0.049252623,68.96551724
3.161,-0.046697313,68.96551724
3.162,-0.040309038,68.96551724
3.163,-0.030087797,68.96551724
3.164,-0.01507535,68.96551724
3.165,0.004728304,68.96551724
3.166,0.029323165,68.96551724
3.167,0.058389818,68.96551724
3.168,0.09160885,68.96551724
3.169,0.127702607,68.96551724
3.17,0.166351673,68.96551724
3.171,0.205639567,68.96551724
3.172,0.244608047,68.96551724
3.173,0.281021218,68.96551724
3.174,0.314559664,68.96551724
3.175,0.343626317,68.96551724
3.176,0.367901764,68.96551724
3.177,0.38706659,68.96551724
3.178,0.401120796,68.96551724
3.179,0.409425554,68.96551724
3.18,0.412300278,68.96551724
3.181,0.410383796,68.96551724
3.182,0.403356693,68.96551724
3.183,0.392496624,68.96551724
3.184,0.377803591,68.96551724
3.185,0.360555247,68.96551724
3.186,0.340432179,68.96551724
3.187,0.318073215,68.96551724
3.188,0.293158941,68.96551724
3.189,0.265689356,68.96551724
3.19,0.235345048,68.96551724
3.191,0.202764843,68.96551724
3.192,0.167629328,68.96551724
3.193,0.130896744,68.96551724
3.194,0.092567092,68.96551724
3.195,0.053918025,68.96551724
3.196,0.015268959,68.96551724
3.197,-0.022421867,68.96551724
3.198,-0.058515623,68.96551724
3.199,-0.091415241,68.96551724
3.2,-0.120481895,68.96551724
3.201,-0.144757342,68.96551724
3.202,-0.163602754,68.96551724
3.203,-0.177018133,68.96551724
3.204,-0.185003477,68.96551724
3.205,-0.187239373,68.96551724
3.206,-0.184684063,68.96551724
3.207,-0.17765696,68.96551724
3.208,-0.167755133,68.96551724
3.209,-0.155297996,68.96551724
3.21,-0.141882618,68.96551724
3.211,-0.128786653,68.96551724
3.212,-0.116329516,68.96551724
3.213,-0.106108275,68.96551724
3.214,-0.097803517,68.96551724
3.215,-0.092692897,68.96551724
3.216,-0.090457,68.96551724
3.217,-0.090457,68.96551724
3.218,-0.092692897,68.96551724
3.219,-0.096525862,68.96551724
3.22,-0.100678241,68.96551724
3.221,-0.10483062,68.96551724
3.222,-0.107705344,68.96551724
3.223,-0.108663585,68.96551724
3.224,-0.10738593,68.96551724
3.225,-0.103872379,68.96551724
3.226,-0.098122931,68.96551724
3.227,-0.090776414,68.96551724
3.228,-0.08279107,68.96551724
3.229,-0.074805725,68.96551724
3.23,-0.067139795,68.96551724
3.231,-0.061070933,68.96551724
3.232,-0.056918554,68.96551724
3.233,-0.054682658,68.96551724
3.234,-0.054682658,68.96551724
3.235,-0.057237968,68.96551724
3.236,-0.061390347,68.96551724
3.237,-0.067459209,68.96551724
3.238,-0.074166898,68.96551724
3.239,-0.081194001,68.96551724
3.24,-0.087582276,68.96551724
3.241,-0.09301231,68.96551724
3.242,-0.096525862,68.96551724
3.243,-0.097803517,68.96551724
3.244,-0.096525862,68.96551724
3.245,-0.092692897,68.96551724
3.246,-0.086304621,68.96551724
3.247,-0.077999863,68.96551724
3.248,-0.068736864,68.96551724
3.249,-0.05915445,68.96551724
3.25,-0.050530279,68.96551724
3.251,-0.043183762,68.96551724
3.252,-0.038073141,68.96551724
3.253,-0.035517831,68.96551724
3.254,-0.035837245,68.96551724
3.255,-0.039031383,68.96551724
3.256,-0.044142003,68.96551724
3.257,-0.05148852,68.96551724
3.258,-0.059473864,68.96551724
3.259,-0.068098036,68.96551724
3.26,-0.07608338,68.96551724
3.261,-0.08279107,68.96551724
3.262,-0.087262862,68.96551724
3.263,-0.089179345,68.96551724
3.264,-0.088221104,68.96551724
3.265,-0.085026966,68.96551724
3.266,-0.079277518,68.96551724
3.267,-0.071611588,68.96551724
3.268,-0.062987416,68.96551724
3.269,-0.05404383,68.96551724
3.27,-0.045739072,68.96551724
3.271,-0.039031383,68.96551724
3.272,-0.034240176,68.96551724
3.273,-0.03200428,68.96551724
3.274,-0.032323694,68.96551724
3.275,-0.035517831,68.96551724
3.276,-0.040309038,68.96551724
3.277,-0.0463779,68.96551724
3.278,-0.053085589,68.96551724
3.279,-0.059793278,68.96551724
3.28,-0.065542726,68.96551724
3.281,-0.070333932,68.96551724
3.282,-0.07352807,68.96551724
3.283,-0.074166898,68.96551724
3.284,-0.072889243,68.96551724
3.285,-0.069375691,68.96551724
3.286,-0.063626243,68.96551724
3.287,-0.056279726,68.96551724
3.288,-0.048613796,68.96551724
3.289,-0.040947865,68.96551724
3.29,-0.03455959,68.96551724
3.291,-0.029768383,68.96551724
3.292,-0.027213073,68.96551724
3.293,-0.027532487,68.96551724
3.294,-0.030407211,68.96551724
3.295,-0.035837245,68.96551724
3.296,-0.042544934,68.96551724
3.297,-0.050210865,68.96551724
3.298,-0.057876795,68.96551724
3.299,-0.065223312,68.96551724
3.3,-0.070653346,68.96551724
3.301,-0.074805725,68.96551724
3.302,-0.07608338,68.96551724
3.303,-0.075125139,68.96551724
3.304,-0.071611588,68.96551724
3.305,-0.065223312,68.96551724
3.306,-0.056918554,68.96551724
3.307,-0.047336141,68.96551724
3.308,-0.037434314,68.96551724
3.309,-0.027851901,68.96551724
3.31,-0.019227729,68.96551724
3.311,-0.012839453,68.96551724
3.312,-0.008687074,68.96551724
3.313,-0.007728833,68.96551724
3.314,-0.009325902,68.96551724
3.315,-0.013797695,68.96551724
3.316,-0.020505384,68.96551724
3.317,-0.028810142,68.96551724
3.318,-0.037434314,68.96551724
3.319,-0.046058486,68.96551724
3.32,-0.053085589,68.96551724
3.321,-0.058515623,68.96551724
3.322,-0.061390347,68.96551724
3.323,-0.062029174,68.96551724
3.324,-0.059473864,68.96551724
3.325,-0.054682658,68.96551724
3.326,-0.047974968,68.96551724
3.327,-0.039989624,68.96551724
3.328,-0.031365452,68.96551724
3.329,-0.023380108,68.96551724
3.33,-0.016672419,68.96551724
3.331,-0.011561798,68.96551724
3.332,-0.008687074,68.96551724
3.333,-0.008048247,68.96551724
3.334,-0.009325902,68.96551724
3.335,-0.012839453,68.96551724
3.336,-0.017311246,68.96551724
3.337,-0.022421867,68.96551724
3.338,-0.027532487,68.96551724
3.339,-0.031684866,68.96551724
3.34,-0.03455959,68.96551724
3.341,-0.035517831,68.96551724
3.342,-0.033920762,68.96551724
3.343,-0.030407211,68.96551724
3.344,-0.024338349,68.96551724
3.345,-0.016991832,68.96551724
3.346,-0.008048247,68.96551724
3.347,0.001214753,68.96551724
3.348,0.009838924,68.96551724
3.349,0.017824269,68.96551724
3.35,0.02389313,68.96551724
3.351,0.027726096,68.96551724
3.352,0.028684337,68.96551724
3.353,0.027087268,68.96551724
3.354,0.022934889,68.96551724
3.355,0.016866027,68.96551724
3.356,0.009200097,68.96551724
3.357,0.001534166,68.96551724
3.358,-0.006451178,68.96551724
3.359,-0.013158867,68.96551724
3.36,-0.018269488,68.96551724
3.361,-0.021144211,68.96551724
3.362,-0.020824798,68.96551724
3.363,-0.017950074,68.96551724
3.364,-0.011881212,68.96551724
3.365,-0.003576454,68.96551724
3.366,0.005686545,68.96551724
3.367,0.015907786,68.96551724
3.368,0.025809613,68.96551724
3.369,0.034753199,68.96551724
3.37,0.041780302,68.96551724
3.371,0.046252095,68.96551724
3.372,0.048168577,68.96551724
3.373,0.04752975,68.96551724
3.374,0.044335612,68.96551724
3.375,0.039863819,68.96551724
3.376,0.033794957,68.96551724
3.377,0.027726096,68.96551724
3.378,0.022296062,68.96551724
3.379,0.017504855,68.96551724
3.38,0.014630131,68.96551724
3.381,0.013991304,68.96551724
3.382,0.015588372,68.96551724
3.383,0.020060165,68.96551724
3.384,0.026767854,68.96551724
3.385,0.035392026,68.96551724
3.386,0.045293853,68.96551724
3.387,0.055515094,68.96551724
3.388,0.064778093,68.96551724
3.389,0.073082851,68.96551724
3.39,0.079151713,68.96551724
3.391,0.082984678,68.96551724
3.392,0.08394292,68.96551724
3.393,0.082026437,68.96551724
3.394,0.078193472,68.96551724
3.395,0.072444024,68.96551724
3.396,0.065736335,68.96551724
3.397,0.059028645,68.96551724
3.398,0.05264037,68.96551724
3.399,0.04752975,68.96551724
3.4,0.044335612,68.96551724
3.401,0.043696784,68.96551724
3.402,0.045932681,68.96551724
3.403,0.050723887,68.96551724
3.404,0.058070404,68.96551724
3.405,0.067652817,68.96551724
3.406,0.077874058,68.96551724
3.407,0.088414713,68.96551724
3.408,0.097677712,68.96551724
3.409,0.105663056,68.96551724
3.41,0.111731918,68.96551724
3.411,0.115564883,68.96551724
3.412,0.116842538,68.96551724
3.413,0.115884297,68.96551724
3.414,0.113009573,68.96551724
3.415,0.108857194,68.96551724
3.416,0.103746574,68.96551724
3.417,0.098955367,68.96551724
3.418,0.094483574,68.96551724
3.419,0.09160885,68.96551724
3.42,0.090650609,68.96551724
3.421,0.09160885,68.96551724
3.422,0.094483574,68.96551724
3.423,0.099913608,68.96551724
3.424,0.106940711,68.96551724
3.425,0.115245469,68.96551724
3.426,0.123869641,68.96551724
3.427,0.131854986,68.96551724
3.428,0.138562675,68.96551724
3.429,0.143353881,68.96551724
3.43,0.145909192,68.96551724
3.431,0.145589778,68.96551724
3.432,0.142715054,68.96551724
3.433,0.137604434,68.96551724
3.434,0.130257917,68.96551724
3.435,0.122272572,68.96551724
3.436,0.113967814,68.96551724
3.437,0.10598247,68.96551724
3.438,0.099594195,68.96551724
3.439,0.094802988,68.96551724
3.44,0.092247678,68.96551724
3.441,0.092567092,68.96551724
3.442,0.095761229,68.96551724
3.443,0.10087185,68.96551724
3.444,0.108218366,68.96551724
3.445,0.116523125,68.96551724
3.446,0.124508469,68.96551724
3.447,0.132174399,68.96551724
3.448,0.137923847,68.96551724
3.449,0.141437399,68.96551724
3.45,0.142076226,68.96551724
3.451,0.139520916,68.96551724
3.452,0.134090882,68.96551724
3.453,0.125786124,68.96551724
3.454,0.115245469,68.96551724
3.455,0.10342716,68.96551724
3.456,0.091289437,68.96551724
3.457,0.079471127,68.96551724
3.458,0.068930472,68.96551724
3.459,0.060306301,68.96551724
3.46,0.053918025,68.96551724
3.461,0.050404474,68.96551724
3.462,0.049446232,68.96551724
3.463,0.051043301,68.96551724
3.464,0.054237439,68.96551724
3.465,0.058389818,68.96551724
3.466,0.062542197,68.96551724
3.467,0.066055748,68.96551724
3.468,0.068611059,68.96551724
3.469,0.068930472,68.96551724
3.47,0.06701399,68.96551724
3.471,0.062861611,68.96551724
3.472,0.055834508,68.96551724
3.473,0.046571508,68.96551724
3.474,0.03571144,68.96551724
3.475,0.02389313,160.4278075
3.476,0.011755407,160.4278075
3.477,0.000575925,160.4278075
3.478,-0.009645316,160.4278075
3.479,-0.01763066,160.4278075
3.48,-0.023380108,160.4278075
3.481,-0.025935418,160.4278075
3.482,-0.025935418,160.4278075
3.483,-0.024018935,160.4278075
3.484,-0.02018597,160.4278075
3.485,-0.015394764,160.4278075
3.486,-0.010603557,160.4278075
3.487,-0.006770592,160.4278075
3.488,-0.004215282,160.4278075
3.489,-0.003895868,160.4278075
3.49,-0.00581235,160.4278075
3.491,-0.010284143,160.4278075
3.492,-0.017311246,160.4278075
3.493,-0.026254832,160.4278075
3.494,-0.036156659,160.4278075
3.495,-0.046697313,160.4278075
3.496,-0.05659914,160.4278075
3.497,-0.065542726,160.4278075
3.498,-0.073208656,160.4278075
3.499,-0.078638691,160.4278075
3.5,-0.081832828,160.4278075
3.501,-0.082471656,160.4278075
3.502,-0.081194001,160.4278075
3.503,-0.077999863,160.4278075
3.504,-0.07352807,160.4278075
3.505,-0.069056277,160.4278075
3.506,-0.064903898,160.4278075
3.507,-0.062029174,160.4278075
3.508,-0.060751519,160.4278075
3.509,-0.061709761,160.4278075
3.51,-0.064584485,160.4278075
3.511,-0.070014519,160.4278075
3.512,-0.077361035,160.4278075
3.513,-0.085665794,160.4278075
3.514,-0.094928793,160.4278075
3.515,-0.103552965,160.4278075
3.516,-0.111538309,160.4278075
3.517,-0.118245998,160.4278075
3.518,-0.122717791,160.4278075
3.519,-0.124634274,160.4278075
3.52,-0.123676033,160.4278075
3.521,-0.119843067,160.4278075
3.522,-0.113454792,160.4278075
3.523,-0.105469447,160.4278075
3.524,-0.096206448,160.4278075
3.525,-0.086943449,160.4278075
3.526,-0.078638691,160.4278075
3.527,-0.072250415,160.4278075
3.528,-0.06841745,160.4278075
3.529,-0.067459209,160.4278075
3.53,-0.069695105,160.4278075
3.531,-0.075125139,160.4278075
3.532,-0.08279107,160.4278075
3.533,-0.092054069,160.4278075
3.534,-0.101636482,160.4278075
3.535,-0.111218895,160.4278075
3.536,-0.119843067,160.4278075
3.537,-0.126550756,160.4278075
3.538,-0.131341963,160.4278075
3.539,-0.133577859,160.4278075
3.54,-0.133258446,160.4278075
3.541,-0.129744894,160.4278075
3.542,-0.123676033,160.4278075
3.543,-0.115690688,160.4278075
3.544,-0.106108275,160.4278075
3.545,-0.096525862,160.4278075
3.546,-0.08790169,160.4278075
3.547,-0.080555173,160.4278075
3.548,-0.075763967,160.4278075
3.549,-0.07352807,160.4278075
3.55,-0.074166898,160.4278075
3.551,-0.077361035,160.4278075
3.552,-0.082471656,160.4278075
3.553,-0.089179345,160.4278075
3.554,-0.096845276,160.4278075
3.555,-0.104511206,160.4278075
3.556,-0.111538309,160.4278075
3.557,-0.117287757,160.4278075
3.558,-0.121120722,160.4278075
3.559,-0.122398377,160.4278075
3.56,-0.121120722,160.4278075
3.561,-0.117607171,160.4278075
3.562,-0.111538309,160.4278075
3.563,-0.104191792,160.4278075
3.564,-0.096206448,160.4278075
3.565,-0.088221104,160.4278075
3.566,-0.081513415,160.4278075
3.567,-0.07608338,160.4278075
3.568,-0.073208656,160.4278075
3.569,-0.072569829,160.4278075
3.57,-0.074486312,160.4278075
3.571,-0.078638691,160.4278075
3.572,-0.084388138,160.4278075
3.573,-0.091095828,160.4278075
3.574,-0.098122931,160.4278075
3.575,-0.10483062,160.4278075
3.576,-0.110260654,160.4278075
3.577,-0.114093619,160.4278075
3.578,-0.115690688,160.4278075
3.579,-0.115371274,160.4278075
3.58,-0.11249655,160.4278075
3.581,-0.10738593,160.4278075
3.582,-0.100997655,160.4278075
3.583,-0.093651138,160.4278075
3.584,-0.085985207,160.4278075
3.585,-0.078958104,160.4278075
3.586,-0.073208656,160.4278075
3.587,-0.069056277,160.4278075
3.588,-0.067778622,160.4278075
3.589,-0.069056277,160.4278075
3.59,-0.072889243,160.4278075
3.591,-0.078638691,160.4278075
3.592,-0.085665794,160.4278075
3.593,-0.093651138,160.4278075
3.594,-0.101317068,160.4278075
3.595,-0.108344171,160.4278075
3.596,-0.113454792,160.4278075
3.597,-0.11664893,160.4278075
3.598,-0.117287757,160.4278075
3.599,-0.115051861,160.4278075
3.6,-0.110260654,160.4278075
3.601,-0.102914137,160.4278075
3.602,-0.093970552,160.4278075
3.603,-0.084388138,160.4278075
3.604,-0.074805725,160.4278075
3.605,-0.066500967,160.4278075
3.606,-0.060112692,160.4278075
3.607,-0.055960313,160.4278075
3.608,-0.054363244,160.4278075
3.609,-0.055640899,160.4278075
3.61,-0.059473864,160.4278075
3.611,-0.065542726,160.4278075
3.612,-0.072889243,160.4278075
3.613,-0.081194001,160.4278075
3.614,-0.089498759,160.4278075
3.615,-0.096525862,160.4278075
3.616,-0.10227531,160.4278075
3.617,-0.106108275,160.4278075
3.618,-0.10738593,160.4278075
3.619,-0.105788861,160.4278075
3.62,-0.100997655,160.4278075
3.621,-0.093970552,160.4278075
3.622,-0.085026966,160.4278075
3.623,-0.075444553,160.4278075
3.624,-0.06586214,160.4278075
3.625,-0.057237968,160.4278075
3.626,-0.050530279,160.4278075
3.627,-0.046058486,160.4278075
3.628,-0.044461417,160.4278075
3.629,-0.045419658,160.4278075
3.63,-0.048613796,160.4278075
3.631,-0.05404383,160.4278075
3.632,-0.060751519,160.4278075
3.633,-0.068098036,160.4278075
3.634,-0.075444553,160.4278075
3.635,-0.082152242,160.4278075
3.636,-0.087262862,160.4278075
3.637,-0.090457,160.4278075
3.638,-0.091095828,160.4278075
3.639,-0.089498759,160.4278075
3.64,-0.08534638,160.4278075
3.641,-0.079596932,160.4278075
3.642,-0.072250415,160.4278075
3.643,-0.064584485,160.4278075
3.644,-0.057237968,160.4278075
3.645,-0.051169106,160.4278075
3.646,-0.047016727,160.4278075
3.647,-0.044780831,160.4278075
3.648,-0.044780831,160.4278075
3.649,-0.047655555,160.4278075
3.65,-0.052446761,160.4278075
3.651,-0.058835037,160.4278075
3.652,-0.066500967,160.4278075
3.653,-0.074166898,160.4278075
3.654,-0.081194001,160.4278075
3.655,-0.086943449,160.4278075
3.656,-0.090457,160.4278075
3.657,-0.091415241,160.4278075
3.658,-0.090137586,160.4278075
3.659,-0.086304621,160.4278075
3.66,-0.080235759,160.4278075
3.661,-0.072569829,160.4278075
3.662,-0.064265071,160.4278075
3.663,-0.055960313,160.4278075
3.664,-0.048294382,160.4278075
3.665,-0.042544934,160.4278075
3.666,-0.038711969,160.4278075
3.667,-0.037753728,160.4278075
3.668,-0.039350797,160.4278075
3.669,-0.043822589,160.4278075
3.67,-0.050210865,160.4278075
3.671,-0.058515623,160.4278075
3.672,-0.067139795,160.4278075
3.673,-0.075763967,160.4278075
3.674,-0.083429897,160.4278075
3.675,-0.089498759,160.4278075
3.676,-0.093331724,160.4278075
3.677,-0.094609379,160.4278075
3.678,-0.093331724,160.4278075
3.679,-0.089498759,160.4278075
3.68,-0.083110483,160.4278075
3.681,-0.075125139,160.4278075
3.682,-0.066500967,160.4278075
3.683,-0.057876795,160.4278075
3.684,-0.050210865,160.4278075
3.685,-0.044142003,160.4278075
3.686,-0.040309038,160.4278075
3.687,-0.039031383,160.4278075
3.688,-0.040628452,160.4278075
3.689,-0.044780831,160.4278075
3.69,-0.050849692,160.4278075
3.691,-0.058835037,160.4278075
3.692,-0.067459209,160.4278075
3.693,-0.075763967,160.4278075
3.694,-0.083110483,160.4278075
3.695,-0.088221104,160.4278075
3.696,-0.091415241,160.4278075
3.697,-0.091734655,160.4278075
3.698,-0.089498759,160.4278075
3.699,-0.084707552,160.4278075
3.7,-0.077999863,160.4278075
3.701,-0.070333932,160.4278075
3.702,-0.062029174,160.4278075
3.703,-0.054363244,160.4278075
3.704,-0.048294382,160.4278075
3.705,-0.043822589,160.4278075
3.706,-0.04222552,160.4278075
3.707,-0.043183762,160.4278075
3.708,-0.046697313,160.4278075
3.709,-0.052127347,160.4278075
3.71,-0.05915445,160.4278075
3.711,-0.067139795,160.4278075
3.712,-0.075444553,160.4278075
3.713,-0.08279107,160.4278075
3.714,-0.089498759,160.4278075
3.715,-0.094289965,160.4278075
3.716,-0.096525862,160.4278075
3.717,-0.095887034,160.4278075
3.718,-0.092373483,160.4278075
3.719,-0.086304621,160.4278075
3.72,-0.077999863,160.4278075
3.721,-0.06841745,160.4278075
3.722,-0.058835037,160.4278075
3.723,-0.049572037,160.4278075
3.724,-0.041906107,160.4278075
3.725,-0.036476073,160.4278075
3.726,-0.033601349,160.4278075
3.727,-0.033601349,160.4278075
3.728,-0.036795486,160.4278075
3.729,-0.04222552,160.4278075
3.73,-0.049572037,160.4278075
3.731,-0.057876795,160.4278075
3.732,-0.066181553,160.4278075
3.733,-0.073847484,160.4278075
3.734,-0.080235759,160.4278075
3.735,-0.084388138,160.4278075
3.736,-0.086304621,160.4278075
3.737,-0.08534638,160.4278075
3.738,-0.081832828,160.4278075
3.739,-0.076722208,160.4278075
3.74,-0.069695105,160.4278075
3.741,-0.062348588,160.4278075
3.742,-0.055321485,160.4278075
3.743,-0.049252623,160.4278075
3.744,-0.044780831,160.4278075
3.745,-0.042864348,160.4278075
3.746,-0.042864348,160.4278075
3.747,-0.045419658,160.4278075
3.748,-0.050530279,160.4278075
3.749,-0.057237968,160.4278075
3.75,-0.064903898,160.4278075
3.751,-0.07352807,160.4278075
3.752,-0.081832828,160.4278075
3.753,-0.088859931,160.4278075
3.754,-0.094609379,160.4278075
3.755,-0.097484103,160.4278075
3.756,-0.097803517,160.4278075
3.757,-0.094609379,160.4278075
3.758,-0.088859931,160.4278075
3.759,-0.080874587,160.4278075
3.76,-0.071292174,160.4278075
3.761,-0.061070933,160.4278075
3.762,-0.05148852,160.4278075
3.763,-0.043183762,160.4278075
3.764,-0.0371149,160.4278075
3.765,-0.033920762,160.4278075
3.766,-0.033281935,160.4278075
3.767,-0.035837245,160.4278075
3.768,-0.041267279,160.4278075
3.769,-0.048613796,178.5714286
3.77,-0.057237968,178.5714286
3.771,-0.066500967,178.5714286
3.772,-0.075444553,178.5714286
3.773,-0.083429897,178.5714286
3.774,-0.089179345,178.5714286
3.775,-0.092692897,178.5714286
3.776,-0.093651138,178.5714286
3.777,-0.092054069,178.5714286
3.778,-0.088221104,178.5714286
3.779,-0.082471656,178.5714286
3.78,-0.075444553,178.5714286
3.781,-0.068098036,178.5714286
3.782,-0.061070933,178.5714286
3.783,-0.055002071,178.5714286
3.784,-0.050530279,178.5714286
3.785,-0.047974968,178.5714286
3.786,-0.047974968,178.5714286
3.787,-0.050210865,178.5714286
3.788,-0.054363244,178.5714286
3.789,-0.060432106,178.5714286
3.79,-0.067778622,178.5714286
3.791,-0.074805725,178.5714286
3.792,-0.081513415,178.5714286
3.793,-0.086304621,178.5714286
3.794,-0.089498759,178.5714286
3.795,-0.089818173,178.5714286
3.796,-0.087262862,178.5714286
3.797,-0.082152242,178.5714286
3.798,-0.074805725,178.5714286
3.799,-0.066181553,178.5714286
3.8,-0.057557382,178.5714286
3.801,-0.049252623,178.5714286
3.802,-0.041906107,178.5714286
3.803,-0.036795486,178.5714286
3.804,-0.033601349,178.5714286
3.805,-0.032643107,178.5714286
3.806,-0.03455959,178.5714286
3.807,-0.038392555,178.5714286
3.808,-0.044461417,178.5714286
3.809,-0.051807934,178.5714286
3.81,-0.059793278,178.5714286
3.811,-0.067778622,178.5714286
3.812,-0.074805725,178.5714286
3.813,-0.080235759,178.5714286
3.814,-0.083429897,178.5714286
3.815,-0.084068725,178.5714286
3.816,-0.081832828,178.5714286
3.817,-0.077361035,178.5714286
3.818,-0.070653346,178.5714286
3.819,-0.062668002,178.5714286
3.82,-0.054363244,178.5714286
3.821,-0.046697313,178.5714286
3.822,-0.03967021,178.5714286
3.823,-0.03455959,178.5714286
3.824,-0.031684866,178.5714286
3.825,-0.031684866,178.5714286
3.826,-0.03455959,178.5714286
3.827,-0.03967021,178.5714286
3.828,-0.047016727,178.5714286
3.829,-0.055002071,178.5714286
3.83,-0.062987416,178.5714286
3.831,-0.070333932,178.5714286
3.832,-0.07608338,178.5714286
3.833,-0.079916346,178.5714286
3.834,-0.081513415,178.5714286
3.835,-0.079916346,178.5714286
3.836,-0.075763967,178.5714286
3.837,-0.069375691,178.5714286
3.838,-0.060751519,178.5714286
3.839,-0.051169106,178.5714286
3.84,-0.041267279,178.5714286
3.841,-0.032323694,178.5714286
3.842,-0.024977177,178.5714286
3.843,-0.019547143,178.5714286
3.844,-0.017311246,178.5714286
3.845,-0.017950074,178.5714286
3.846,-0.021144211,178.5714286
3.847,-0.027213073,178.5714286
3.848,-0.034879004,178.5714286
3.849,-0.043503176,178.5714286
3.85,-0.052127347,178.5714286
3.851,-0.060112692,178.5714286
3.852,-0.066820381,178.5714286
3.853,-0.071292174,178.5714286
3.854,-0.07352807,178.5714286
3.855,-0.072569829,178.5714286
3.856,-0.069056277,178.5714286
3.857,-0.062987416,178.5714286
3.858,-0.055002071,178.5714286
3.859,-0.045739072,178.5714286
3.86,-0.036476073,178.5714286
3.861,-0.027532487,178.5714286
3.862,-0.02018597,178.5714286
3.863,-0.01507535,178.5714286
3.864,-0.01252004,178.5714286
3.865,-0.012839453,178.5714286
3.866,-0.016353005,178.5714286
3.867,-0.022102453,178.5714286
3.868,-0.029768383,178.5714286
3.869,-0.038392555,178.5714286
3.87,-0.047016727,178.5714286
3.871,-0.055002071,178.5714286
3.872,-0.061709761,178.5714286
3.873,-0.066181553,178.5714286
3.874,-0.06841745,178.5714286
3.875,-0.068098036,178.5714286
3.876,-0.065223312,178.5714286
3.877,-0.059793278,178.5714286
3.878,-0.052766175,178.5714286
3.879,-0.045419658,178.5714286
3.88,-0.038073141,178.5714286
3.881,-0.031684866,178.5714286
3.882,-0.026893659,178.5714286
3.883,-0.024338349,178.5714286
3.884,-0.024018935,178.5714286
3.885,-0.025935418,178.5714286
3.886,-0.030726625,178.5714286
3.887,-0.037434314,178.5714286
3.888,-0.045419658,178.5714286
3.889,-0.054682658,178.5714286
3.89,-0.063945657,178.5714286
3.891,-0.071611588,178.5714286
3.892,-0.077680449,178.5714286
3.893,-0.080874587,178.5714286
3.894,-0.081513415,178.5714286
3.895,-0.079277518,178.5714286
3.896,-0.074166898,178.5714286
3.897,-0.066820381,178.5714286
3.898,-0.057557382,178.5714286
3.899,-0.047016727,178.5714286
3.9,-0.036476073,178.5714286
3.901,-0.026574246,178.5714286
3.902,-0.01763066,178.5714286
3.903,-0.010922971,178.5714286
3.904,-0.006131764,178.5714286
3.905,-0.003895868,178.5714286
3.906,-0.003895868,178.5714286
3.907,-0.00581235,178.5714286
3.908,-0.009006488,178.5714286
3.909,-0.012839453,178.5714286
3.91,-0.016353005,178.5714286
3.911,-0.018908315,178.5714286
3.912,-0.02018597,178.5714286
3.913,-0.019547143,178.5714286
3.914,-0.016991832,178.5714286
3.915,-0.011881212,178.5714286
3.916,-0.005173523,178.5714286
3.917,0.003131235,178.5714286
3.918,0.011755407,178.5714286
3.919,0.020698993,178.5714286
3.92,0.029003751,178.5714286
3.921,0.03571144,178.5714286
3.922,0.040502647,178.5714286
3.923,0.042738543,178.5714286
3.924,0.042738543,178.5714286
3.925,0.039863819,178.5714286
3.926,0.035072613,178.5714286
3.927,0.029003751,178.5714286
3.928,0.021976648,178.5714286
3.929,0.015268959,178.5714286
3.93,0.009519511,178.5714286
3.931,0.005686545,178.5714286
3.932,0.00440889,178.5714286
3.933,0.006005959,178.5714286
3.934,0.010477752,178.5714286
3.935,0.017824269,178.5714286
3.936,0.027406682,178.5714286
3.937,0.038586164,178.5714286
3.938,0.050723887,178.5714286
3.939,0.062542197,178.5714286
3.94,0.073721679,178.5714286
3.941,0.083304092,178.5714286
3.942,0.090650609,178.5714286
3.943,0.095122402,178.5714286
3.944,0.096400057,178.5714286
3.945,0.094802988,178.5714286
3.946,0.090011781,178.5714286
3.947,0.083304092,178.5714286
3.948,0.074999334,178.5714286
3.949,0.066055748,178.5714286
3.95,0.057431577,178.5714286
3.951,0.05008506,178.5714286
3.952,0.044335612,178.5714286
3.953,0.041141474,178.5714286
3.954,0.040502647,178.5714286
3.955,0.041780302,178.5714286
3.956,0.044655026,178.5714286
3.957,0.048487991,178.5714286
3.958,0.05264037,178.5714286
3.959,0.055834508,178.5714286
3.96,0.05775099,178.5714286
3.961,0.058070404,178.5714286
3.962,0.055834508,178.5714286
3.963,0.051043301,178.5714286
3.964,0.043377371,178.5714286
3.965,0.03315613,178.5714286
3.966,0.021018407,178.5714286
3.967,0.007603028,178.5714286
3.968,-0.006451178,178.5714286
3.969,-0.02018597,178.5714286
3.97,-0.032962521,178.5714286
3.971,-0.043822589,178.5714286
3.972,-0.051807934,178.5714286
3.973,-0.056918554,178.5714286
3.974,-0.058835037,178.5714286
3.975,-0.057557382,178.5714286
3.976,-0.054363244,178.5714286
3.977,-0.04893321,178.5714286
3.978,-0.042864348,178.5714286
3.979,-0.036795486,178.5714286
3.98,-0.031365452,178.5714286
3.981,-0.027532487,178.5714286
3.982,-0.025935418,178.5714286
3.983,-0.026893659,178.5714286
3.984,-0.030407211,178.5714286
3.985,-0.036156659,178.5714286
3.986,-0.043503176,178.5714286
3.987,-0.052127347,178.5714286
3.988,-0.061070933,178.5714286
3.989,-0.069695105,178.5714286
3.99,-0.077361035,178.5714286
3.991,-0.083110483,178.5714286
3.992,-0.086304621,178.5714286
3.993,-0.086943449,178.5714286
3.994,-0.085026966,178.5714286
3.995,-0.080555173,178.5714286
3.996,-0.074166898,178.5714286
3.997,-0.066820381,178.5714286
3.998,-0.05915445,178.5714286
3.999,-0.051807934,178.5714286
4,-0.045739072,178.5714286
4.001,-0.041586693,178.5714286
4.002,-0.039989624,178.5714286
4.003,-0.040947865,178.5714286
4.004,-0.044780831,178.5714286
4.005,-0.050530279,178.5714286
4.006,-0.057876795,178.5714286
4.007,-0.06586214,178.5714286
4.008,-0.074166898,178.5714286
4.009,-0.081194001,178.5714286
4.01,-0.086943449,178.5714286
4.011,-0.090457,178.5714286
4.012,-0.091734655,178.5714286
4.013,-0.090457,178.5714286
4.014,-0.086943449,178.5714286
4.015,-0.080874587,178.5714286
4.016,-0.073208656,178.5714286
4.017,-0.064903898,178.5714286
4.018,-0.05659914,178.5714286
4.019,-0.049572037,178.5714286
4.02,-0.044142003,178.5714286
4.021,-0.041267279,178.5714286
4.022,-0.041267279,178.5714286
4.023,-0.043822589,178.5714286
4.024,-0.048613796,178.5714286
4.025,-0.055321485,178.5714286
4.026,-0.062987416,178.5714286
4.027,-0.07097276,178.5714286
4.028,-0.078319277,178.5714286
4.029,-0.084707552,178.5714286
4.03,-0.088859931,178.5714286
4.031,-0.090137586,178.5714286
4.032,-0.088540518,178.5714286
4.033,-0.083429897,178.5714286
4.034,-0.074805725,178.5714286
4.035,-0.062987416,178.5714286
4.036,-0.047974968,178.5714286
4.037,-0.030726625,178.5714286
4.038,-0.010922971,178.5714286
4.039,0.009838924,178.5714286
4.04,0.031878475,178.5714286
4.041,0.053918025,178.5714286
4.042,0.075957575,178.5714286
4.043,0.097677712,178.5714286
4.044,0.119078435,178.5714286
4.045,0.140798571,178.5714286
4.046,0.163476949,178.5714286
4.047,0.187432982,178.5714286
4.048,0.212347256,178.5714286
4.049,0.2388586,178.5714286
4.05,0.26600877,178.5714286
4.051,0.294436596,178.5714286
4.052,0.323503249,178.5714286
4.053,0.352569903,178.5714286
4.054,0.380358901,178.5714286
4.055,0.405273175,178.5714286
4.056,0.426354484,178.5714286
4.057,0.442005759,178.5714286
4.058,0.450629931,178.5714286
4.059,0.451907586,178.5714286
4.06,0.445199897,178.5714286
4.061,0.430506863,178.5714286
4.062,0.408147899,178.5714286
4.063,0.378442418,178.5714286
4.064,0.342668076,178.5714286
4.065,0.301783113,178.5714286
4.066,0.257704012,178.5714286
4.067,0.212027843,178.5714286
4.068,0.166032259,178.5714286
4.069,0.121314331,178.5714286
4.07,0.079471127,178.5714286
4.071,0.041460888,178.5714286
4.072,0.008241856,178.5714286
4.073,-0.019547143,178.5714286
4.074,-0.041906107,178.5714286
4.075,-0.059473864,178.5714286
4.076,-0.072250415,178.5714286
4.077,-0.081513415,178.5714286
4.078,-0.088221104,178.5714286
4.079,-0.09301231,178.5714286
4.08,-0.097164689,178.5714286
4.081,-0.100997655,178.5714286
4.082,-0.105150034,178.5714286
4.083,-0.10994124,178.5714286
4.084,-0.114732447,178.5714286
4.085,-0.119843067,178.5714286
4.086,-0.12431486,178.5714286
4.087,-0.127508998,178.5714286
4.088,-0.128786653,178.5714286
4.089,-0.127828412,178.5714286
4.09,-0.12431486,178.5714286
4.091,-0.117926585,178.5714286
4.092,-0.108982999,178.5714286
4.093,-0.097484103,178.5714286
4.094,-0.084388138,178.5714286
4.095,-0.070333932,178.5714286
4.096,-0.056279726,178.5714286
4.097,-0.042864348,178.5714286
4.098,-0.031046038,178.5714286
4.099,-0.021783039,178.5714286
4.1,-0.015394764,178.5714286
4.101,-0.01252004,178.5714286
4.102,-0.012839453,178.5714286
4.103,-0.016353005,178.5714286
4.104,-0.022421867,178.5714286
4.105,-0.030726625,178.5714286
4.106,-0.039989624,178.5714286
4.107,-0.049891451,178.5714286
4.108,-0.05915445,178.5714286
4.109,-0.066820381,178.5714286
4.11,-0.072250415,178.5714286
4.111,-0.074805725,178.5714286
4.112,-0.074486312,178.5714286
4.113,-0.071611588,178.5714286
4.114,-0.066820381,178.5714286
4.115,-0.060112692,178.5714286
4.116,-0.053085589,178.5714286
4.117,-0.0463779,178.5714286
4.118,-0.040628452,178.5714286
4.119,-0.036156659,178.5714286
4.12,-0.033601349,178.5714286
4.121,-0.032962521,178.5714286
4.122,-0.03455959,178.5714286
4.123,-0.038073141,178.5714286
4.124,-0.043503176,178.5714286
4.125,-0.050210865,178.5714286
4.126,-0.056918554,178.5714286
4.127,-0.063306829,178.5714286
4.128,-0.068098036,178.5714286
4.129,-0.071611588,178.5714286
4.13,-0.072250415,178.5714286
4.131,-0.070333932,178.5714286
4.132,-0.06586214,178.5714286
4.133,-0.058835037,178.5714286
4.134,-0.050210865,178.5714286
4.135,-0.040628452,178.5714286
4.136,-0.031365452,178.5714286
4.137,-0.02274128,178.5714286
4.138,-0.015714177,178.5714286
4.139,-0.010922971,178.5714286
4.14,-0.009006488,178.5714286
4.141,-0.009645316,178.5714286
4.142,-0.012839453,178.5714286
4.143,-0.018908315,178.5714286
4.144,-0.026893659,178.5714286
4.145,-0.035517831,178.5714286
4.146,-0.044461417,178.5714286
4.147,-0.052127347,178.5714286
4.148,-0.058196209,178.5714286
4.149,-0.062348588,178.5714286
4.15,-0.063945657,178.5714286
4.151,-0.062668002,178.5714286
4.152,-0.058515623,178.5714286
4.153,-0.052446761,178.5714286
4.154,-0.044461417,178.5714286
4.155,-0.035517831,178.5714286
4.156,-0.026574246,178.5714286
4.157,-0.018269488,178.5714286
4.158,-0.010922971,178.5714286
4.159,-0.005492937,178.5714286
4.16,-0.002618213,178.5714286
4.161,-0.002298799,178.5714286
4.162,-0.004215282,178.5714286
4.163,-0.008367661,178.5714286
4.164,-0.013797695,178.5714286
4.165,-0.02018597,178.5714286
4.166,-0.026574246,178.5714286
4.167,-0.03200428,178.5714286
4.168,-0.036476073,178.5714286
4.169,-0.039031383,178.5714286
4.17,-0.039350797,178.5714286
4.171,-0.0371149,178.5714286
4.172,-0.032962521,178.5714286
4.173,-0.026893659,178.5714286
4.174,-0.019547143,178.5714286
4.175,-0.011561798,178.5714286
4.176,-0.003895868,178.5714286
4.177,0.002492408,178.5714286
4.178,0.006964201,178.5714286
4.179,0.009519511,178.5714286
4.18,0.009519511,178.5714286
4.181,0.006964201,178.5714286
4.182,0.002492408,178.5714286
4.183,-0.003895868,178.5714286
4.184,-0.011242385,178.5714286
4.185,-0.018908315,178.5714286
4.186,-0.025935418,178.5714286
4.187,-0.031365452,178.5714286
4.188,-0.035198417,178.5714286
4.189,-0.036795486,178.5714286
4.19,-0.035837245,178.5714286
4.191,-0.032643107,178.5714286
4.192,-0.026893659,178.5714286
4.193,-0.019227729,178.5714286
4.194,-0.010603557,178.5714286
4.195,-0.001979385,178.5714286
4.196,0.005686545,178.5714286
4.197,0.012074821,178.5714286
4.198,0.016866027,178.5714286
4.199,0.019101924,178.5714286
4.2,0.018463096,178.5714286
4.201,0.015588372,178.5714286
4.202,0.010797166,178.5714286
4.203,0.004089477,178.5714286
4.204,-0.002937626,178.5714286
4.205,-0.010603557,178.5714286
4.206,-0.017311246,178.5714286
4.207,-0.023060694,178.5714286
4.208,-0.026574246,178.5714286
4.209,-0.027851901,178.5714286
4.21,-0.026574246,178.5714286
4.211,-0.022102453,178.5714286
4.212,-0.015394764,178.5714286
4.213,-0.006451178,178.5714286
4.214,0.003770063,178.5714286
4.215,0.013352476,178.5714286
4.216,0.022296062,178.5714286
4.217,0.029961992,178.5714286
4.218,0.035392026,178.5714286
4.219,0.038586164,178.5714286
4.22,0.038905578,178.5714286
4.221,0.037308509,178.5714286
4.222,0.033794957,178.5714286
4.223,0.029003751,178.5714286
4.224,0.023254303,178.5714286
4.225,0.017504855,178.5714286
4.226,0.012713648,178.5714286
4.227,0.008880683,178.5714286
4.228,0.006964201,178.5714286
4.229,0.007283614,178.5714286
4.23,0.010158338,178.5714286
4.231,0.014949545,178.5714286
4.232,0.021976648,178.5714286
4.233,0.029961992,178.5714286
4.234,0.03826675,178.5714286
4.235,0.046571508,178.5714286
4.236,0.053598611,178.5714286
4.237,0.059028645,178.5714286
4.238,0.062542197,178.5714286
4.239,0.063819852,178.5714286
4.24,0.062542197,178.5714286
4.241,0.059348059,178.5714286
4.242,0.054556853,178.5714286
4.243,0.048807405,178.5714286
4.244,0.042738543,178.5714286
4.245,0.036989095,178.5714286
4.246,0.032197889,178.5714286
4.247,0.029323165,178.5714286
4.248,0.029003751,178.5714286
4.249,0.031239647,178.5714286
4.25,0.036350268,178.5714286
4.251,0.043696784,178.5714286
4.252,0.052959784,178.5714286
4.253,0.063181025,178.5714286
4.254,0.073721679,178.5714286
4.255,0.083623506,178.5714286
4.256,0.092247678,178.5714286
4.257,0.098635953,178.5714286
4.258,0.102788332,178.5714286
4.259,0.104385401,178.5714286
4.26,0.103746574,178.5714286
4.261,0.100552436,178.5714286
4.262,0.095761229,178.5714286
4.263,0.090011781,178.5714286
4.264,0.084262334,178.5714286
4.265,0.078832299,178.5714286
4.266,0.07467992,178.5714286
4.267,0.072763438,178.5714286
4.268,0.072763438,178.5714286
