Time,"CH 1, ECG","CH40, Heart Rate"
sec,mV,BPM
0,0.005964741,0
0.001,0.005964741,0
0.002,0.004368537,0
0.003,-0.000420075,0
0.004,-0.009678059,0
0.005,-0.022766932,0
0.006,-0.038409732,0
0.007,-0.055010254,0
0.008,-0.071291536,0
0.009,-0.086295854,0
0.01,-0.099065487,0
0.011,-0.109919675,0
0.012,-0.118219936,0
0.013,-0.124923993,0
0.014,-0.129393364,0
0.015,-0.131947291,0
0.016,-0.132266532,0
0.017,-0.130989568,0
0.018,-0.128116401,0
0.019,-0.124285511,0
0.02,-0.119496899,0
0.021,-0.114708287,0
0.022,-0.110238915,0
0.023,-0.106727266,0
0.024,-0.10417334,0
0.025,-0.103534858,0
0.026,-0.103854099,0
0.027,-0.105769544,0
0.028,-0.108323471,0
0.029,-0.111515879,0
0.03,-0.114069805,0
0.031,-0.115346768,0
0.032,-0.115027528,0
0.033,-0.11183512,0
0.034,-0.106088785,0
0.035,-0.096830801,0
0.036,-0.085018891,0
0.037,-0.070653054,0
0.038,-0.054371773,0
0.039,-0.03777125,0
0.04,-0.021489969,0
0.041,-0.007124132,0
0.042,0.004368537,0
0.043,0.012668798,0
0.044,0.01713817,0
0.045,0.01713817,0
0.046,0.012988039,0
0.047,0.00532626,0
0.048,-0.005847169,0
0.049,-0.018616801,0
0.05,-0.031705675,0
0.051,-0.043836826,0
0.052,-0.053733291,0
0.053,-0.060118107,0
0.054,-0.062672034,0
0.055,-0.060756589,0
0.056,-0.054691014,0
0.057,-0.044475307,0
0.058,-0.030747952,0
0.059,-0.015424393,0
0.06,0.000856888,0
0.061,0.015861207,0
0.062,0.029588562,0
0.063,0.040442749,0
0.064,0.047466047,0
0.065,0.050019974,0
0.066,0.04842377,0
0.067,0.042677435,0
0.068,0.033419451,0
0.069,0.021926782,0
0.07,0.00947639,0
0.071,-0.002974001,0
0.072,-0.01414743,0
0.073,-0.022766932,0
0.074,-0.028194026,0
0.075,-0.029151748,0
0.076,-0.02595934,0
0.077,-0.018936042,0
0.078,-0.008720336,0
0.079,0.003730056,0
0.08,0.016499688,0
0.081,0.029588562,0
0.082,0.041400472,0
0.083,0.050658456,0
0.084,0.056724031,0
0.085,0.058639476,0
0.086,0.057043272,0
0.087,0.051616178,0
0.088,0.043315917,0
0.089,0.033100211,0
0.09,0.021926782,0
0.091,0.011391835,0
0.092,0.002453092,0
0.093,-0.004570206,0
0.094,-0.008081855,0
0.095,-0.008081855,0
0.096,-0.003931724,0
0.097,0.004049296,0
0.098,0.014903484,0
0.099,0.028311598,0
0.1,0.042677435,0
0.101,0.057043272,0
0.102,0.069493664,0
0.103,0.079070888,0
0.104,0.085455704,0
0.105,0.08769039,0
0.106,0.086094186,0
0.107,0.080667092,0
0.108,0.072366831,0
0.109,0.062151125,0
0.11,0.050977696,0
0.111,0.040442749,0
0.112,0.031184766,0
0.113,0.024799949,0
0.114,0.021607541,0
0.115,0.022884505,0
0.116,0.027992358,0
0.117,0.037250341,0
0.118,0.050019974,0
0.119,0.065024292,0
0.12,0.081305574,0
0.121,0.097586855,0
0.122,0.112591174,0
0.123,0.125680047,0
0.124,0.135257272,0
0.125,0.141322847,0
0.126,0.142919051,0
0.127,0.141003606,0
0.128,0.135895753,0
0.129,0.128872455,0
0.13,0.120572194,0
0.131,0.112910415,0
0.132,0.106525598,0
0.133,0.102694708,0
0.134,0.102056227,0
0.135,0.105248635,0
0.136,0.112271933,0
0.137,0.123126121,0
0.138,0.137172716,0
0.139,0.153453998,0
0.14,0.171012243,0
0.141,0.188570488,0
0.142,0.204851769,0
0.143,0.218259884,0
0.144,0.228156349,0
0.145,0.234221924,0
0.146,0.235818128,0
0.147,0.233583443,0
0.148,0.227837108,0
0.149,0.219536847,0
0.15,0.209959622,0
0.151,0.200063157,0
0.152,0.191124414,0
0.153,0.184101116,0
0.154,0.179631745,0
0.155,0.178993263,0
0.156,0.182504912,0
0.157,0.18952821,0
0.158,0.199424675,0
0.159,0.211555826,0
0.16,0.224006218,0
0.161,0.236137369,0
0.162,0.246991557,0
0.163,0.254972577,0
0.164,0.25976119,0
0.165,0.260399671,0
0.166,0.257207263,0
0.167,0.249545484,0
0.168,0.238691296,0
0.169,0.225283182,0
0.17,0.210598104,0
0.171,0.195274545,0
0.172,0.181227949,0
0.173,0.169416039,0
0.174,0.160477296,0
0.175,0.155050202,0
0.176,0.153773239,0
0.177,0.156327165,0
0.178,0.1620735,0
0.179,0.17005452,0
0.18,0.178993263,0
0.181,0.187932006,0
0.182,0.195593786,0
0.183,0.20102088,0
0.184,0.202936324,0
0.185,0.200701639,0
0.186,0.194636063,0
0.187,0.184101116,0
0.188,0.170373761,0
0.189,0.15409248,0
0.19,0.136534235,0
0.191,0.118656749,0
0.192,0.102056227,0
0.193,0.08769039,0
0.194,0.076516962,0
0.195,0.069174423,0
0.196,0.065982015,0
0.197,0.066939737,0
0.198,0.071728349,0
0.199,0.078751647,0
0.2,0.087371149,0
0.201,0.096629133,0
0.202,0.104610153,0
0.203,0.110675729,0
0.204,0.113868137,0
0.205,0.112910415,0
0.206,0.108441043,0
0.207,0.099821541,0
0.208,0.088009631,0
0.209,0.073963035,0
0.21,0.058320235,0
0.211,0.042677435,0
0.212,0.027992358,0
0.213,0.015541966,0
0.214,0.005964741,0
0.215,0.000537648,0
0.216,-0.001058557,0
0.217,0.001176129,0
0.218,0.006922464,0
0.219,0.015861207,0
0.22,0.026715394,0
0.221,0.037569582,0
0.222,0.047785288,0
0.223,0.055447068,0
0.224,0.06023568,0
0.225,0.061512643,0
0.226,0.058958717,0
0.227,0.0525739,0
0.228,0.042358194,0
0.229,0.029588562,0
0.23,0.015222725,0
0.231,0.000537648,0
0.232,-0.013189708,0
0.233,-0.025001618,0
0.234,-0.033940361,0
0.235,-0.039048214,0
0.236,-0.040005936,0
0.237,-0.037132769,0
0.238,-0.030428712,0
0.239,-0.020851487,0
0.24,-0.009678059,0
0.241,0.001814611,0
0.242,0.012349558,0
0.243,0.021288301,0
0.244,0.027353876,0
0.245,0.029907803,0
0.246,0.028311598,0
0.247,0.023203745,0
0.248,0.014584243,0
0.249,0.003730056,0
0.25,-0.008401095,0
0.251,-0.020851487,0
0.252,-0.032663397,0
0.253,-0.041921381,0
0.254,-0.048625438,0
0.255,-0.051498605,0
0.256,-0.050221642,0
0.257,-0.044475307,0
0.258,-0.035217324,0
0.259,-0.022766932,0
0.26,-0.008401095,0
0.261,0.006283982,0
0.262,0.02096906,0
0.263,0.034057933,0
0.264,0.043954398,0
0.265,0.050019974,0
0.266,0.05225466,0
0.267,0.050339215,0
0.268,0.044912121,0
0.269,0.036292619,0
0.27,0.026076913,0
0.271,0.014903484,0
0.272,0.004368537,0
0.273,-0.004889446,0
0.274,-0.011593503,0
0.275,-0.014466671,0
0.276,-0.013508948,0
0.277,-0.008720336,0
0.278,-0.000100834,0
0.279,0.011072594,0
0.28,0.024161468,0
0.281,0.037888823,0
0.282,0.050977696,0
0.283,0.062470366,0
0.284,0.071409109,0
0.285,0.077155443,0
0.286,0.079390129,0
0.287,0.077793925,0
0.288,0.072686072,0
0.289,0.064705051,0
0.29,0.055447068,0
0.291,0.045869843,0
0.292,0.0369311,0
0.293,0.029907803,0
0.294,0.026076913,0
0.295,0.026076913,0
0.296,0.030227043,0
0.297,0.038846545,0
0.298,0.050977696,0
0.299,0.066301255,0
0.3,0.083221019,0
0.301,0.100779264,0
0.302,0.117699027,0
0.303,0.132384104,0
0.304,0.144196014,0
0.305,0.152177035,0
0.306,0.155688684,0
0.307,0.154730961,0
0.308,0.149623108,0
0.309,0.141642088,0
0.31,0.131745623,0
0.311,0.120572194,0
0.312,0.110037247,0
0.313,0.100779264,0
0.314,0.093436725,0
0.315,0.089925076,0
0.316,0.089925076,0
0.317,0.094394447,0
0.318,0.102694708,0
0.319,0.114187378,0
0.32,0.127914733,0
0.321,0.141961329,0
0.322,0.155688684,0
0.323,0.167500594,0
0.324,0.176439337,0
0.325,0.181866431,0
0.326,0.182504912,0
0.327,0.178674022,0
0.328,0.170693002,0
0.329,0.158561851,0
0.33,0.143876774,0
0.331,0.127595492,0
0.332,0.111633451,0
0.333,0.096629133,0
0.334,0.084178741,0
0.335,0.074920757,0
0.336,0.069174423,0
0.337,0.066939737,0
0.338,0.068535941,0
0.339,0.073005313,0
0.34,0.080028611,0
0.341,0.08769039,0
0.342,0.09535217,0
0.343,0.101736986,0
0.344,0.105248635,0
0.345,0.105248635,0
0.346,0.101417745,0
0.347,0.093117484,0
0.348,0.080986333,0
0.349,0.065982015,0
0.35,0.048743011,0
0.351,0.030546284,0
0.352,0.01330728,0
0.353,-0.002016279,0
0.354,-0.015105152,0
0.355,-0.024682377,0
0.356,-0.030428712,0
0.357,-0.031705675,0
0.358,-0.029470989,0
0.359,-0.024043895,0
0.36,-0.016062875,0
0.361,-0.007124132,0
0.362,0.001814611,0
0.363,0.00915715,0
0.364,0.014265003,0
0.365,0.015861207,0
0.366,0.01330728,0
0.367,0.006603223,0
0.368,-0.003612483,0
0.369,-0.017339838,0
0.37,-0.032982638,0
0.371,-0.049583161,0
0.372,-0.065545201,0
0.373,-0.079591797,0
0.374,-0.091084467,0
0.375,-0.098746246,0
0.376,-0.102257895,0
0.377,-0.101300173,0
0.378,-0.095873079,0
0.379,-0.086934336,0
0.38,-0.075122426,0
0.381,-0.062033552,0
0.382,-0.048306197,0
0.383,-0.036175046,0
0.384,-0.026278581,0
0.385,-0.019893765,0
0.386,-0.01797832,0
0.387,-0.020213005,0
0.388,-0.026597822,0
0.389,-0.036813528,0
0.39,-0.049902401,0
0.391,-0.064268238,0
0.392,-0.078634075,0
0.393,-0.092042189,0
0.394,-0.102577136,0
0.395,-0.110238915,0
0.396,-0.113112083,0
0.397,-0.11183512,0
0.398,-0.106088785,0
0.399,-0.09619232,0
0.4,-0.083741928,0
0.401,-0.069695332,0
0.402,-0.055329495,0
0.403,-0.042559863,0
0.404,-0.031705675,0
0.405,-0.024043895,0
0.406,-0.020213005,0
0.407,-0.020532246,0
0.408,-0.024682377,0
0.409,-0.032344156,0
0.41,-0.042879103,0
0.411,-0.055010254,0
0.412,-0.067141405,0
0.413,-0.078634075,0
0.414,-0.088211299,0
0.415,-0.095234597,0
0.416,-0.098427005,0
0.417,-0.098107764,0
0.418,-0.093957634,0
0.419,-0.086615095,0
0.42,-0.07671863,0
0.421,-0.06522596,0
0.422,-0.053733291,0
0.423,-0.042879103,0
0.424,-0.033301879,0
0.425,-0.026278581,0
0.426,-0.02212845,0
0.427,-0.020851487,0
0.428,-0.02212845,0
0.429,-0.02595934,0
0.43,-0.031386434,0
0.431,-0.036813528,0
0.432,-0.041282899,0
0.433,-0.043836826,0
0.434,-0.043517585,0
0.435,-0.039048214,0
0.436,-0.030109471,0
0.437,-0.016382116,0
0.438,0.002133852,0
0.439,0.024799949,0
0.44,0.051616178,0
0.441,0.080667092,0
0.442,0.110356488,0
0.443,0.139726643,0
0.444,0.166862112,0
0.445,0.190805173,0
0.446,0.210598104,0
0.447,0.225602422,0
0.448,0.235498888,0
0.449,0.240606741,0
0.45,0.241245222,0
0.451,0.238052814,0
0.452,0.231987239,0
0.453,0.223048496,0
0.454,0.21283279,0
0.455,0.20134012,0
0.456,0.189847451,0
0.457,0.178674022,0
0.458,0.167819835,0
0.459,0.157284888,0
0.46,0.145792219,0
0.461,0.132703345,0
0.462,0.117060545,0
0.463,0.098544578,0
0.464,0.076516962,0
0.465,0.050658456,0
0.466,0.021607541,0
0.467,-0.010635781,0
0.468,-0.04543303,0
0.469,-0.081507242,0
0.47,-0.117900695,0
0.471,-0.153017185,0
0.472,-0.185260507,0
0.473,-0.21399218,0
0.474,-0.237616001,0
0.475,-0.255493486,0
0.476,-0.266986156,0
0.477,-0.271774768,0
0.478,-0.270817046,0
0.479,-0.264112988,0
0.48,-0.253258801,0
0.481,-0.239212205,0
0.482,-0.223569405,0
0.483,-0.207926605,0
0.484,-0.193880009,0
0.485,-0.182068099,0
0.486,-0.173448597,0
0.487,-0.168340744,0
0.488,-0.167063781,0
0.489,-0.168659985,0
0.49,-0.173129356,0
0.491,-0.178875691,0
0.492,-0.184941266,0
0.493,-0.19036836,0
0.494,-0.193560768,0
0.495,-0.193880009,0
0.496,-0.190049119,0
0.497,-0.182068099,0
0.498,-0.169298466,0
0.499,-0.153017185,0
0.5,-0.133862736,0
0.501,-0.113112083,0
0.502,-0.092042189,0
0.503,-0.072249258,0
0.504,-0.054691014,0
0.505,-0.040005936,0
0.506,-0.029470989,0
0.507,-0.023405414,0
0.508,-0.02212845,0
0.509,-0.025640099,0
0.51,-0.032982638,0
0.511,-0.042559863,0
0.512,-0.053733291,0
0.513,-0.06490672,0
0.514,-0.074164703,0
0.515,-0.081188001,0
0.516,-0.084380409,0
0.517,-0.084061169,0
0.518,-0.079591797,0
0.519,-0.071291536,0
0.52,-0.060437348,0
0.521,-0.047348475,0
0.522,-0.033301879,0
0.523,-0.019893765,0
0.524,-0.008401095,0
0.525,0.000218407,0
0.526,0.005007019,0
0.527,0.005645501,0
0.528,0.002453092,0
0.529,-0.004889446,0
0.53,-0.015424393,0
0.531,-0.027874785,0
0.532,-0.041282899,0
0.533,-0.054052532,0
0.534,-0.06490672,0
0.535,-0.07288774,0
0.536,-0.077037871,0
0.537,-0.077037871,0
0.538,-0.07288774,0
0.539,-0.06490672,0
0.54,-0.05341405,0
0.541,-0.039367454,0
0.542,-0.024363136,0
0.543,-0.009678059,0
0.544,0.004049296,0
0.545,0.014584243,0
0.546,0.021926782,0
0.547,0.02511919,0
0.548,0.023842227,0
0.549,0.018734374,0
0.55,0.010434113,0
0.551,0.000218407,0
0.552,-0.010955022,0
0.553,-0.02212845,0
0.554,-0.031705675,0
0.555,-0.038728973,0
0.556,-0.042559863,0
0.557,-0.042240622,0
0.558,-0.03777125,0
0.559,-0.02979023,0
0.56,-0.018616801,0
0.561,-0.005527928,0
0.562,0.008518668,0
0.563,0.022565264,0
0.564,0.035015656,0
0.565,0.04459288,0
0.566,0.050658456,0
0.567,0.052893141,0
0.568,0.050658456,0
0.569,0.04459288,0
0.57,0.035015656,0
0.571,0.022884505,0
0.572,0.009795631,0
0.573,-0.00233552,0
0.574,-0.013508948,0
0.575,-0.02212845,0
0.576,-0.027236303,0
0.577,-0.027874785,0
0.578,-0.024682377,0
0.579,-0.017020597,0
0.58,-0.005847169,0
0.581,0.007560945,0
0.582,0.022565264,0
0.583,0.037569582,0
0.584,0.050658456,0
0.585,0.061512643,0
0.586,0.068535941,0
0.587,0.07204759,0
0.588,0.071089868,0
0.589,0.066301255,0
0.59,0.058320235,0
0.591,0.048104529,0
0.592,0.0369311,0
0.593,0.026076913,0
0.594,0.016818929,0
0.595,0.010434113,0
0.596,0.007880186,0
0.597,0.00947639,0
0.598,0.015541966,0
0.599,0.026076913,0
0.6,0.040442749,0
0.601,0.057043272,0
0.602,0.074920757,0
0.603,0.092798243,0
0.604,0.109079525,0
0.605,0.123126121,0
0.606,0.133661068,0
0.607,0.140365125,0
0.608,0.14259981,0
0.609,0.140684365,0
0.61,0.135257272,0
0.611,0.127276251,0
0.612,0.117379786,0
0.613,0.107483321,0
0.614,0.098225337,0
0.615,0.091202039,0
0.616,0.087371149,0
0.617,0.08769039,0
0.618,0.091840521,0
0.619,0.100140782,0
0.62,0.111952692,0
0.621,0.126318529,0
0.622,0.141642088,0
0.623,0.157284888,0
0.624,0.171650725,0
0.625,0.183781876,0
0.626,0.192082137,0
0.627,0.196232267,0
0.628,0.195913027,0
0.629,0.191443655,0
0.63,0.183143394,0
0.631,0.171969965,0
0.632,0.159200333,0
0.633,0.145792219,0
0.634,0.133341827,0
0.635,0.12280688,0
0.636,0.115464341,0
0.637,0.111633451,0
0.638,0.111633451,0
0.639,0.115783582,0
0.64,0.123126121,0
0.641,0.133022586,0
0.642,0.144196014,0
0.643,0.155688684,0
0.644,0.16590439,0
0.645,0.173566169,0
0.646,0.178354782,0
0.647,0.178993263,0
0.648,0.175800855,0
0.649,0.168458316,0
0.65,0.157284888,0
0.651,0.143238292,0
0.652,0.127595492,0
0.653,0.111633451,0
0.654,0.096629133,0
0.655,0.0838595,0
0.656,0.073643794,0
0.657,0.067258978,0
0.658,0.064705051,0
0.659,0.066301255,0
0.66,0.071089868,0
0.661,0.078432406,0
0.662,0.08769039,0
0.663,0.096948374,0
0.664,0.105248635,0
0.665,0.11099497,0
0.666,0.113868137,0
0.667,0.112591174,0
0.668,0.107483321,0
0.669,0.098863819,0
0.67,0.086732668,0
0.671,0.07204759,0
0.672,0.05640479,0
0.673,0.04076199,0
0.674,0.026396154,0
0.675,0.013945762,0
0.676,0.005007019,0
0.677,-0.000739316,0
0.678,-0.002016279,0
0.679,0.000856888,0
0.68,0.006922464,0
0.681,0.016499688,0
0.682,0.027673117,0
0.683,0.039485027,0
0.684,0.050019974,0
0.685,0.058000994,0
0.686,0.062789607,0
0.687,0.063108847,0
0.688,0.058958717,0
0.689,0.050339215,0
0.69,0.037888823,0
0.691,0.022246023,0
0.692,0.00532626,0
0.693,-0.012231985,0
0.694,-0.029151748,0
0.695,-0.043836826,0
0.696,-0.055648736,0
0.697,-0.062991275,0
0.698,-0.066183683,0
0.699,-0.06490672,0
0.7,-0.059479626,0
0.701,-0.050540883,0
0.702,-0.039367454,0
0.703,-0.026917063,0
0.704,-0.015105152,0
0.705,-0.004570206,0
0.706,0.003410815,0
0.707,0.007560945,0
0.708,0.008199427,0
0.709,0.00532626,0
0.71,-0.001377797,0
0.711,-0.010955022,0
0.712,-0.022447691,0
0.713,-0.034578842,0
0.714,-0.046071512,0
0.715,-0.056287218,0
0.716,-0.063629756,0
0.717,-0.067460646,0
0.718,-0.067141405,0
0.719,-0.062991275,0
0.72,-0.054691014,0
0.721,-0.043517585,0
0.722,-0.030747952,0
0.723,-0.01797832,0
0.724,-0.00616641,0
0.725,0.004049296,0
0.726,0.011072594,0
0.727,0.015222725,0
0.728,0.015861207,0
0.729,0.012668798,0
0.73,0.005964741,0
0.731,-0.003293242,0
0.732,-0.014785912,0
0.733,-0.026917063,0
0.734,-0.038409732,0
0.735,-0.047986956,0
0.736,-0.055010254,0
0.737,-0.058202663,0
0.738,-0.05724494,0
0.739,-0.051817846,0
0.74,-0.042879103,0
0.741,-0.030747952,0
0.742,-0.017020597,0
0.743,-0.002654761,0
0.744,0.010114872,0
0.745,0.021288301,0
0.746,0.029269321,0
0.747,0.033738692,0
0.748,0.033738692,0
0.749,0.029269321,0
0.75,0.021288301,0
0.751,0.010434113,0
0.752,-0.001697038,0
0.753,-0.014785912,0
0.754,-0.026597822,0
0.755,-0.036813528,0
0.756,-0.043517585,0
0.757,-0.046709993,0
0.758,-0.045113789,0
0.759,-0.038728973,0
0.76,-0.028194026,0
0.761,-0.013828189,0
0.762,0.003091574,0
0.763,0.020649819,0
0.764,0.037888823,0
0.765,0.053531623,0
0.766,0.066620496,0
0.767,0.07587848,0
0.768,0.081305574,0
0.769,0.082582537,0
0.77,0.080028611,0
0.771,0.073963035,0
0.772,0.065982015,0
0.773,0.05640479,0
0.774,0.047146807,0
0.775,0.039165786,0
0.776,0.033738692,0
0.777,0.031823247,0
0.778,0.033738692,0
0.779,0.039804268,0
0.78,0.049700733,0
0.781,0.063108847,0
0.782,0.078432406,0
0.783,0.095032929,0
0.784,0.11099497,0
0.785,0.125360806,0
0.786,0.136534235,0
0.787,0.144196014,0
0.788,0.147707663,0
0.789,0.1464307,0
0.79,0.141322847,0
0.791,0.132064863,0
0.792,0.120252953,0
0.793,0.106525598,0
0.794,0.092798243,0
0.795,0.07970937,0
0.796,0.068855182,0
0.797,0.060874162,0
0.798,0.05640479,0
0.799,0.055447068,0
0.8,0.058000994,0
0.801,0.063428088,0
0.802,0.071089868,0
0.803,0.079070888,0
0.804,0.086732668,0
0.805,0.092798243,0
0.806,0.096629133,0
0.807,0.096948374,0
0.808,0.093436725,0
0.809,0.085455704,0
0.81,0.073643794,0
0.811,0.058639476,0
0.812,0.041081231,157.480315
0.813,0.022884505,157.480315
0.814,0.005007019,157.480315
0.815,-0.011593503,157.480315
0.816,-0.025640099,157.480315
0.817,-0.036175046,157.480315
0.818,-0.042879103,157.480315
0.819,-0.045113789,157.480315
0.82,-0.043517585,157.480315
0.821,-0.038728973,157.480315
0.822,-0.031386434,157.480315
0.823,-0.022766932,157.480315
0.824,-0.01414743,157.480315
0.825,-0.006804891,157.480315
0.826,-0.002016279,157.480315
0.827,-0.000420075,157.480315
0.828,-0.002974001,157.480315
0.829,-0.009358818,157.480315
0.83,-0.019893765,157.480315
0.831,-0.03362112,157.480315
0.832,-0.049583161,157.480315
0.833,-0.066502924,157.480315
0.834,-0.083422687,157.480315
0.835,-0.098746246,157.480315
0.836,-0.111515879,157.480315
0.837,-0.120773862,157.480315
0.838,-0.125881715,157.480315
0.839,-0.126839438,157.480315
0.84,-0.123327789,157.480315
0.841,-0.11598525,157.480315
0.842,-0.106088785,157.480315
0.843,-0.094915356,157.480315
0.844,-0.083422687,157.480315
0.845,-0.073206981,157.480315
0.846,-0.06522596,157.480315
0.847,-0.060437348,157.480315
0.848,-0.059798867,157.480315
0.849,-0.062991275,157.480315
0.85,-0.070014573,157.480315
0.851,-0.080230279,157.480315
0.852,-0.092680671,157.480315
0.853,-0.106727266,157.480315
0.854,-0.120773862,157.480315
0.855,-0.133862736,157.480315
0.856,-0.144397683,157.480315
0.857,-0.151740221,157.480315
0.858,-0.154613389,157.480315
0.859,-0.152697944,157.480315
0.86,-0.146632368,157.480315
0.861,-0.136735903,157.480315
0.862,-0.124285511,157.480315
0.863,-0.110558156,157.480315
0.864,-0.09651156,157.480315
0.865,-0.083741928,157.480315
0.866,-0.073206981,157.480315
0.867,-0.066183683,157.480315
0.868,-0.062672034,157.480315
0.869,-0.063310516,157.480315
0.87,-0.068418369,157.480315
0.871,-0.077037871,157.480315
0.872,-0.08853054,157.480315
0.873,-0.101619413,157.480315
0.874,-0.115027528,157.480315
0.875,-0.12779716,157.480315
0.876,-0.138332107,157.480315
0.877,-0.145993887,157.480315
0.878,-0.149824777,157.480315
0.879,-0.149824777,157.480315
0.88,-0.145674646,157.480315
0.881,-0.138332107,157.480315
0.882,-0.128116401,157.480315
0.883,-0.116304491,157.480315
0.884,-0.104492581,157.480315
0.885,-0.093957634,157.480315
0.886,-0.085338132,157.480315
0.887,-0.079911038,157.480315
0.888,-0.077995593,157.480315
0.889,-0.079911038,157.480315
0.89,-0.085338132,157.480315
0.891,-0.093319152,157.480315
0.892,-0.102577136,157.480315
0.893,-0.11215436,157.480315
0.894,-0.120454622,157.480315
0.895,-0.126200956,157.480315
0.896,-0.128754883,157.480315
0.897,-0.127158679,157.480315
0.898,-0.120135381,157.480315
0.899,-0.108323471,157.480315
0.9,-0.091084467,157.480315
0.901,-0.069695332,157.480315
0.902,-0.044794548,157.480315
0.903,-0.017659079,157.480315
0.904,0.010114872,157.480315
0.905,0.037888823,157.480315
0.906,0.06406657,157.480315
0.907,0.08769039,157.480315
0.908,0.108441043,157.480315
0.909,0.125680047,157.480315
0.91,0.139088161,157.480315
0.911,0.148665386,157.480315
0.912,0.155688684,157.480315
0.913,0.160477296,157.480315
0.914,0.164627427,157.480315
0.915,0.168777557,157.480315
0.916,0.173246929,157.480315
0.917,0.178993263,157.480315
0.918,0.186016561,157.480315
0.919,0.194316822,157.480315
0.92,0.202936324,157.480315
0.921,0.211236586,157.480315
0.922,0.217940643,157.480315
0.923,0.222090773,157.480315
0.924,0.222410014,157.480315
0.925,0.217621402,157.480315
0.926,0.206447973,157.480315
0.927,0.188570488,157.480315
0.928,0.163031223,157.480315
0.929,0.1307879,157.480315
0.93,0.091840521,157.480315
0.931,0.048104529,157.480315
0.932,0.001176129,157.480315
0.933,-0.047667716,157.480315
0.934,-0.095553838,157.480315
0.935,-0.140886034,157.480315
0.936,-0.181748858,157.480315
0.937,-0.217184589,157.480315
0.938,-0.245597021,157.480315
0.939,-0.266986156,157.480315
0.94,-0.280713511,157.480315
0.941,-0.287736809,157.480315
0.942,-0.289013772,157.480315
0.943,-0.285502123,157.480315
0.944,-0.279117307,157.480315
0.945,-0.271136286,157.480315
0.946,-0.263155266,157.480315
0.947,-0.25677045,157.480315
0.948,-0.25293956,157.480315
0.949,-0.251981837,157.480315
0.95,-0.253897282,157.480315
0.951,-0.258685895,157.480315
0.952,-0.265709193,157.480315
0.953,-0.273370972,157.480315
0.954,-0.280713511,157.480315
0.955,-0.287098327,157.480315
0.956,-0.290929217,157.480315
0.957,-0.290929217,157.480315
0.958,-0.287098327,157.480315
0.959,-0.278478825,157.480315
0.96,-0.265389952,157.480315
0.961,-0.248150948,157.480315
0.962,-0.227719536,157.480315
0.963,-0.205691919,157.480315
0.964,-0.182706581,157.480315
0.965,-0.160678964,157.480315
0.966,-0.140886034,157.480315
0.967,-0.124285511,157.480315
0.968,-0.11183512,157.480315
0.969,-0.10417334,157.480315
0.97,-0.101300173,157.480315
0.971,-0.103215618,157.480315
0.972,-0.108642711,157.480315
0.973,-0.116942973,157.480315
0.974,-0.126200956,157.480315
0.975,-0.135778181,157.480315
0.976,-0.144078442,157.480315
0.977,-0.149824777,157.480315
0.978,-0.152697944,157.480315
0.979,-0.151740221,157.480315
0.98,-0.146951609,157.480315
0.981,-0.138651348,157.480315
0.982,-0.127158679,157.480315
0.983,-0.113750564,157.480315
0.984,-0.099384728,157.480315
0.985,-0.085657373,157.480315
0.986,-0.073845462,157.480315
0.987,-0.06490672,157.480315
0.988,-0.059479626,157.480315
0.989,-0.057883422,157.480315
0.99,-0.060437348,157.480315
0.991,-0.066822165,157.480315
0.992,-0.076080148,157.480315
0.993,-0.087572818,157.480315
0.994,-0.099384728,157.480315
0.995,-0.110877397,157.480315
0.996,-0.120773862,157.480315
0.997,-0.12779716,157.480315
0.998,-0.130989568,157.480315
0.999,-0.130351087,157.480315
1,-0.125243234,157.480315
1.001,-0.116623732,157.480315
1.002,-0.104811822,157.480315
1.003,-0.091084467,157.480315
1.004,-0.076399389,157.480315
1.005,-0.062352793,157.480315
1.006,-0.049902401,157.480315
1.007,-0.040325177,157.480315
1.008,-0.034578842,157.480315
1.009,-0.032982638,157.480315
1.01,-0.035855805,157.480315
1.011,-0.042559863,157.480315
1.012,-0.052775569,157.480315
1.013,-0.06490672,157.480315
1.014,-0.078314834,157.480315
1.015,-0.091084467,157.480315
1.016,-0.102257895,157.480315
1.017,-0.111196638,157.480315
1.018,-0.116304491,157.480315
1.019,-0.117262213,157.480315
1.02,-0.114069805,157.480315
1.021,-0.106408026,157.480315
1.022,-0.095553838,157.480315
1.023,-0.082464964,157.480315
1.024,-0.068099128,157.480315
1.025,-0.054052532,157.480315
1.026,-0.04160214,157.480315
1.027,-0.032024916,157.480315
1.028,-0.025640099,157.480315
1.029,-0.023405414,157.480315
1.03,-0.025001618,157.480315
1.031,-0.030428712,157.480315
1.032,-0.039367454,157.480315
1.033,-0.050540883,157.480315
1.034,-0.062672034,157.480315
1.035,-0.074483944,157.480315
1.036,-0.08469965,157.480315
1.037,-0.092680671,157.480315
1.038,-0.097150042,157.480315
1.039,-0.097788524,157.480315
1.04,-0.093957634,157.480315
1.041,-0.085657373,157.480315
1.042,-0.074164703,157.480315
1.043,-0.060437348,157.480315
1.044,-0.045752271,157.480315
1.045,-0.031386434,157.480315
1.046,-0.018297561,157.480315
1.047,-0.007762614,157.480315
1.048,-0.000420075,157.480315
1.049,0.003091574,157.480315
1.05,0.002772333,157.480315
1.051,-0.001377797,157.480315
1.052,-0.008720336,157.480315
1.053,-0.01797832,157.480315
1.054,-0.028832508,157.480315
1.055,-0.039367454,157.480315
1.056,-0.048306197,157.480315
1.057,-0.055329495,157.480315
1.058,-0.058521903,157.480315
1.059,-0.057883422,157.480315
1.06,-0.052775569,157.480315
1.061,-0.043198344,157.480315
1.062,-0.030428712,157.480315
1.063,-0.015105152,157.480315
1.064,0.00149537,157.480315
1.065,0.017457411,157.480315
1.066,0.031823247,157.480315
1.067,0.043954398,157.480315
1.068,0.0525739,157.480315
1.069,0.057362513,157.480315
1.07,0.057681753,157.480315
1.071,0.054170104,157.480315
1.072,0.047146807,157.480315
1.073,0.037569582,157.480315
1.074,0.027034635,157.480315
1.075,0.016499688,157.480315
1.076,0.007560945,157.480315
1.077,0.00149537,157.480315
1.078,-0.001697038,157.480315
1.079,-0.000739316,157.480315
1.08,0.004687778,157.480315
1.081,0.013945762,157.480315
1.082,0.027353876,157.480315
1.083,0.043315917,157.480315
1.084,0.060554921,157.480315
1.085,0.078432406,157.480315
1.086,0.095032929,157.480315
1.087,0.109079525,157.480315
1.088,0.119933712,157.480315
1.089,0.126318529,157.480315
1.09,0.128233974,157.480315
1.091,0.125999288,157.480315
1.092,0.119933712,157.480315
1.093,0.11099497,157.480315
1.094,0.100140782,157.480315
1.095,0.088967353,157.480315
1.096,0.078432406,157.480315
1.097,0.069493664,157.480315
1.098,0.063428088,157.480315
1.099,0.060874162,157.480315
1.1,0.061831884,157.480315
1.101,0.066301255,157.480315
1.102,0.073963035,157.480315
1.103,0.084178741,157.480315
1.104,0.09535217,157.480315
1.105,0.106844839,157.480315
1.106,0.116741304,157.480315
1.107,0.124403084,157.480315
1.108,0.128553214,157.480315
1.109,0.128872455,157.480315
1.11,0.124403084,157.480315
1.111,0.116102823,157.480315
1.112,0.103971672,157.480315
1.113,0.089286594,157.480315
1.114,0.072686072,157.480315
1.115,0.056085549,157.480315
1.116,0.040442749,157.480315
1.117,0.026396154,157.480315
1.118,0.015861207,157.480315
1.119,0.008837909,157.480315
1.12,0.006283982,157.480315
1.121,0.007880186,157.480315
1.122,0.012988039,157.480315
1.123,0.021288301,157.480315
1.124,0.031504007,157.480315
1.125,0.041719713,157.480315
1.126,0.050977696,157.480315
1.127,0.058000994,157.480315
1.128,0.061831884,157.480315
1.129,0.061512643,157.480315
1.13,0.057043272,157.480315
1.131,0.048743011,157.480315
1.132,0.036292619,157.480315
1.133,0.021288301,157.480315
1.134,0.005007019,157.480315
1.135,-0.012231985,157.480315
1.136,-0.028513267,157.480315
1.137,-0.042879103,157.480315
1.138,-0.054371773,157.480315
1.139,-0.062033552,157.480315
1.14,-0.065545201,157.480315
1.141,-0.065545201,157.480315
1.142,-0.061395071,157.480315
1.143,-0.054691014,157.480315
1.144,-0.045752271,157.480315
1.145,-0.036175046,157.480315
1.146,-0.027236303,157.480315
1.147,-0.020213005,157.480315
1.148,-0.016062875,157.480315
1.149,-0.015743634,157.480315
1.15,-0.019255283,157.480315
1.151,-0.027236303,157.480315
1.152,-0.038728973,157.480315
1.153,-0.053094809,157.480315
1.154,-0.069376091,157.480315
1.155,-0.085976613,157.480315
1.156,-0.101619413,157.480315
1.157,-0.115027528,157.480315
1.158,-0.125562475,157.480315
1.159,-0.132266532,157.480315
1.16,-0.134501217,157.480315
1.161,-0.132585773,157.480315
1.162,-0.126839438,157.480315
1.163,-0.118219936,157.480315
1.164,-0.107684989,157.480315
1.165,-0.09651156,157.480315
1.166,-0.085976613,157.480315
1.167,-0.077037871,157.480315
1.168,-0.070653054,157.480315
1.169,-0.068099128,157.480315
1.17,-0.069376091,157.480315
1.171,-0.074803185,157.480315
1.172,-0.083741928,157.480315
1.173,-0.095234597,157.480315
1.174,-0.108642711,157.480315
1.175,-0.122370066,157.480315
1.176,-0.135139699,157.480315
1.177,-0.146313128,157.480315
1.178,-0.154294148,157.480315
1.179,-0.158763519,157.480315
1.18,-0.15908276,157.480315
1.181,-0.15525187,157.480315
1.182,-0.14727085,157.480315
1.183,-0.136097421,157.480315
1.184,-0.122689307,157.480315
1.185,-0.108642711,157.480315
1.186,-0.094915356,157.480315
1.187,-0.083103446,157.480315
1.188,-0.074164703,157.480315
1.189,-0.06905685,157.480315
1.19,-0.067460646,157.480315
1.191,-0.070014573,157.480315
1.192,-0.076399389,157.480315
1.193,-0.085657373,157.480315
1.194,-0.096830801,157.480315
1.195,-0.108642711,148.8833747
1.196,-0.120135381,148.8833747
1.197,-0.129712605,148.8833747
1.198,-0.136735903,148.8833747
1.199,-0.139928311,148.8833747
1.2,-0.138651348,148.8833747
1.201,-0.133543495,148.8833747
1.202,-0.124604752,148.8833747
1.203,-0.113112083,148.8833747
1.204,-0.099703969,148.8833747
1.205,-0.085338132,148.8833747
1.206,-0.071930018,148.8833747
1.207,-0.059798867,148.8833747
1.208,-0.050860124,148.8833747
1.209,-0.04543303,148.8833747
1.21,-0.044475307,148.8833747
1.211,-0.047667716,148.8833747
1.212,-0.055010254,148.8833747
1.213,-0.065545201,148.8833747
1.214,-0.078314834,148.8833747
1.215,-0.091722948,148.8833747
1.216,-0.104811822,148.8833747
1.217,-0.11598525,148.8833747
1.218,-0.124604752,148.8833747
1.219,-0.129393364,148.8833747
1.22,-0.130031846,148.8833747
1.221,-0.126200956,148.8833747
1.222,-0.117900695,148.8833747
1.223,-0.106408026,148.8833747
1.224,-0.09236143,148.8833747
1.225,-0.077357111,148.8833747
1.226,-0.062352793,148.8833747
1.227,-0.048625438,148.8833747
1.228,-0.03745201,148.8833747
1.229,-0.029470989,148.8833747
1.23,-0.025640099,148.8833747
1.231,-0.025320859,148.8833747
1.232,-0.028832508,148.8833747
1.233,-0.035217324,148.8833747
1.234,-0.043517585,148.8833747
1.235,-0.052775569,148.8833747
1.236,-0.061395071,148.8833747
1.237,-0.068737609,148.8833747
1.238,-0.073526222,148.8833747
1.239,-0.074803185,148.8833747
1.24,-0.072249258,148.8833747
1.241,-0.065864442,148.8833747
1.242,-0.055967977,148.8833747
1.243,-0.042879103,148.8833747
1.244,-0.028194026,148.8833747
1.245,-0.012870467,148.8833747
1.246,0.002453092,148.8833747
1.247,0.015541966,148.8833747
1.248,0.026715394,148.8833747
1.249,0.034057933,148.8833747
1.25,0.037250341,148.8833747
1.251,0.035973378,148.8833747
1.252,0.030227043,148.8833747
1.253,0.021288301,148.8833747
1.254,0.010114872,148.8833747
1.255,-0.002016279,148.8833747
1.256,-0.013828189,148.8833747
1.257,-0.024682377,148.8833747
1.258,-0.032982638,148.8833747
1.259,-0.038090491,148.8833747
1.26,-0.039048214,148.8833747
1.261,-0.036175046,148.8833747
1.262,-0.02979023,148.8833747
1.263,-0.020213005,148.8833747
1.264,-0.008720336,148.8833747
1.265,0.003410815,148.8833747
1.266,0.014265003,148.8833747
1.267,0.023522986,148.8833747
1.268,0.029907803,148.8833747
1.269,0.031823247,148.8833747
1.27,0.029269321,148.8833747
1.271,0.022246023,148.8833747
1.272,0.010753354,148.8833747
1.273,-0.004250965,148.8833747
1.274,-0.02180921,148.8833747
1.275,-0.040963658,148.8833747
1.276,-0.059798867,148.8833747
1.277,-0.077357111,148.8833747
1.278,-0.09236143,148.8833747
1.279,-0.10417334,148.8833747
1.28,-0.11183512,148.8833747
1.281,-0.115027528,148.8833747
1.282,-0.114389046,148.8833747
1.283,-0.110238915,148.8833747
1.284,-0.102896377,148.8833747
1.285,-0.093957634,148.8833747
1.286,-0.085018891,148.8833747
1.287,-0.077357111,148.8833747
1.288,-0.072249258,148.8833747
1.289,-0.070333814,148.8833747
1.29,-0.07288774,148.8833747
1.291,-0.079272556,148.8833747
1.292,-0.090126744,148.8833747
1.293,-0.10417334,148.8833747
1.294,-0.121093103,148.8833747
1.295,-0.138651348,148.8833747
1.296,-0.156528834,148.8833747
1.297,-0.173129356,148.8833747
1.298,-0.187495193,148.8833747
1.299,-0.19834938,148.8833747
1.3,-0.205053438,148.8833747
1.301,-0.207288123,148.8833747
1.302,-0.205691919,148.8833747
1.303,-0.200264825,148.8833747
1.304,-0.192283805,148.8833747
1.305,-0.18238734,148.8833747
1.306,-0.172171634,148.8833747
1.307,-0.163232891,148.8833747
1.308,-0.156209593,148.8833747
1.309,-0.152378703,148.8833747
1.31,-0.152697944,148.8833747
1.311,-0.157167315,148.8833747
1.312,-0.165467577,148.8833747
1.313,-0.176960246,148.8833747
1.314,-0.190687601,148.8833747
1.315,-0.205691919,148.8833747
1.316,-0.220376997,148.8833747
1.317,-0.23346587,148.8833747
1.318,-0.244000817,148.8833747
1.319,-0.251343356,148.8833747
1.32,-0.254535764,148.8833747
1.321,-0.253578042,148.8833747
1.322,-0.248470189,148.8833747
1.323,-0.240169927,148.8833747
1.324,-0.228996499,148.8833747
1.325,-0.216226866,148.8833747
1.326,-0.203457234,148.8833747
1.327,-0.191326083,148.8833747
1.328,-0.181429617,148.8833747
1.329,-0.175044801,148.8833747
1.33,-0.172171634,148.8833747
1.331,-0.174087079,148.8833747
1.332,-0.179833413,148.8833747
1.333,-0.189410638,148.8833747
1.334,-0.201541789,148.8833747
1.335,-0.214949903,148.8833747
1.336,-0.228996499,148.8833747
1.337,-0.241766131,148.8833747
1.338,-0.252301078,148.8833747
1.339,-0.259643617,148.8833747
1.34,-0.263155266,148.8833747
1.341,-0.262197544,148.8833747
1.342,-0.257089691,148.8833747
1.343,-0.248150948,148.8833747
1.344,-0.236658278,148.8833747
1.345,-0.223569405,148.8833747
1.346,-0.210480531,148.8833747
1.347,-0.198668621,148.8833747
1.348,-0.188772156,148.8833747
1.349,-0.18238734,148.8833747
1.35,-0.179833413,148.8833747
1.351,-0.181748858,148.8833747
1.352,-0.187814434,148.8833747
1.353,-0.197391658,148.8833747
1.354,-0.209522809,148.8833747
1.355,-0.223569405,148.8833747
1.356,-0.237616001,148.8833747
1.357,-0.250704874,148.8833747
1.358,-0.261559062,148.8833747
1.359,-0.26858236,148.8833747
1.36,-0.271455527,148.8833747
1.361,-0.269220842,148.8833747
1.362,-0.261878303,148.8833747
1.363,-0.249747152,148.8833747
1.364,-0.23346587,148.8833747
1.365,-0.214630662,148.8833747
1.366,-0.194518491,148.8833747
1.367,-0.174087079,148.8833747
1.368,-0.154613389,148.8833747
1.369,-0.137055144,148.8833747
1.37,-0.122370066,148.8833747
1.371,-0.111196638,148.8833747
1.372,-0.103854099,148.8833747
1.373,-0.099703969,148.8833747
1.374,-0.098427005,148.8833747
1.375,-0.098427005,148.8833747
1.376,-0.098427005,148.8833747
1.377,-0.096830801,148.8833747
1.378,-0.092680671,148.8833747
1.379,-0.08469965,148.8833747
1.38,-0.072568499,148.8833747
1.381,-0.055967977,148.8833747
1.382,-0.035217324,148.8833747
1.383,-0.011593503,148.8833747
1.384,0.013945762,148.8833747
1.385,0.040442749,148.8833747
1.386,0.065982015,148.8833747
1.387,0.088328872,148.8833747
1.388,0.106525598,148.8833747
1.389,0.118656749,148.8833747
1.39,0.123126121,148.8833747
1.391,0.119614472,148.8833747
1.392,0.107483321,148.8833747
1.393,0.087371149,148.8833747
1.394,0.060874162,148.8833747
1.395,0.02895008,148.8833747
1.396,-0.00648565,148.8833747
1.397,-0.044794548,148.8833747
1.398,-0.084061169,148.8833747
1.399,-0.123008548,148.8833747
1.4,-0.160040483,148.8833747
1.401,-0.193880009,148.8833747
1.402,-0.223888646,148.8833747
1.403,-0.24910867,148.8833747
1.404,-0.269540082,148.8833747
1.405,-0.285821364,148.8833747
1.406,-0.298590997,148.8833747
1.407,-0.309125943,148.8833747
1.408,-0.318383927,148.8833747
1.409,-0.32732267,148.8833747
1.41,-0.336580654,148.8833747
1.411,-0.347434841,148.8833747
1.412,-0.359885233,148.8833747
1.413,-0.373612588,148.8833747
1.414,-0.388297666,148.8833747
1.415,-0.402982743,148.8833747
1.416,-0.417029339,148.8833747
1.417,-0.42916049,148.8833747
1.418,-0.438737714,148.8833747
1.419,-0.444484049,148.8833747
1.42,-0.446080253,148.8833747
1.421,-0.442887845,148.8833747
1.422,-0.434587584,148.8833747
1.423,-0.422137192,148.8833747
1.424,-0.40585591,148.8833747
1.425,-0.387020702,148.8833747
1.426,-0.367227772,148.8833747
1.427,-0.3471156,148.8833747
1.428,-0.328280392,148.8833747
1.429,-0.311999111,148.8833747
1.43,-0.298910237,148.8833747
1.431,-0.289971495,148.8833747
1.432,-0.285182882,148.8833747
1.433,-0.28422516,148.8833747
1.434,-0.286140605,148.8833747
1.435,-0.289971495,148.8833747
1.436,-0.294440866,148.8833747
1.437,-0.298271756,148.8833747
1.438,-0.300506441,148.8833747
1.439,-0.300506441,148.8833747
1.44,-0.296994792,148.8833747
1.441,-0.289971495,148.8833747
1.442,-0.279117307,148.8833747
1.443,-0.265070711,148.8833747
1.444,-0.247831707,148.8833747
1.445,-0.22931574,148.8833747
1.446,-0.210480531,148.8833747
1.447,-0.192603046,148.8833747
1.448,-0.176641005,148.8833747
1.449,-0.164509854,148.8833747
1.45,-0.156209593,148.8833747
1.451,-0.152697944,148.8833747
1.452,-0.153974907,148.8833747
1.453,-0.159402001,148.8833747
1.454,-0.168659985,148.8833747
1.455,-0.180471895,148.8833747
1.456,-0.193560768,148.8833747
1.457,-0.206330401,148.8833747
1.458,-0.21782307,148.8833747
1.459,-0.227081054,148.8833747
1.46,-0.232827389,148.8833747
1.461,-0.234423593,148.8833747
1.462,-0.232188907,148.8833747
1.463,-0.225804091,148.8833747
1.464,-0.216226866,148.8833747
1.465,-0.204095715,148.8833747
1.466,-0.190687601,148.8833747
1.467,-0.177598727,148.8833747
1.468,-0.166106058,148.8833747
1.469,-0.156848074,148.8833747
1.47,-0.151420981,148.8833747
1.471,-0.149824777,148.8833747
1.472,-0.152059462,148.8833747
1.473,-0.158444279,148.8833747
1.474,-0.168021503,148.8833747
1.475,-0.179833413,148.8833747
1.476,-0.192603046,148.8833747
1.477,-0.205053438,148.8833747
1.478,-0.215588385,148.8833747
1.479,-0.223569405,148.8833747
1.48,-0.228038776,148.8833747
1.481,-0.228358017,148.8833747
1.482,-0.224207887,148.8833747
1.483,-0.215907625,148.8833747
1.484,-0.204414956,148.8833747
1.485,-0.19036836,148.8833747
1.486,-0.175044801,148.8833747
1.487,-0.160040483,148.8833747
1.488,-0.146313128,148.8833747
1.489,-0.13545894,148.8833747
1.49,-0.127477919,148.8833747
1.491,-0.12364703,148.8833747
1.492,-0.124285511,148.8833747
1.493,-0.129074124,148.8833747
1.494,-0.137374385,148.8833747
1.495,-0.148228572,148.8833747
1.496,-0.160359723,148.8833747
1.497,-0.172171634,148.8833747
1.498,-0.182706581,148.8833747
1.499,-0.191006842,148.8833747
1.5,-0.195795454,148.8833747
1.501,-0.196753176,148.8833747
1.502,-0.193241527,148.8833747
1.503,-0.185898989,148.8833747
1.504,-0.175044801,148.8833747
1.505,-0.161955928,148.8833747
1.506,-0.14727085,148.8833747
1.507,-0.132905013,148.8833747
1.508,-0.11981614,148.8833747
1.509,-0.108961952,148.8833747
1.51,-0.101619413,148.8833747
1.511,-0.098107764,148.8833747
1.512,-0.098427005,148.8833747
1.513,-0.102896377,148.8833747
1.514,-0.110877397,148.8833747
1.515,-0.121093103,148.8833747
1.516,-0.132585773,148.8833747
1.517,-0.144078442,148.8833747
1.518,-0.154294148,148.8833747
1.519,-0.161955928,148.8833747
1.52,-0.166106058,148.8833747
1.521,-0.166106058,148.8833747
1.522,-0.161636687,148.8833747
1.523,-0.153017185,148.8833747
1.524,-0.140566793,148.8833747
1.525,-0.125881715,148.8833747
1.526,-0.109281193,148.8833747
1.527,-0.092999911,148.8833747
1.528,-0.077676352,148.8833747
1.529,-0.06490672,148.8833747
1.53,-0.055329495,148.8833747
1.531,-0.049583161,148.8833747
1.532,-0.047986956,148.8833747
1.533,-0.050540883,148.8833747
1.534,-0.056606458,148.8833747
1.535,-0.06522596,148.8833747
1.536,-0.075441667,148.8833747
1.537,-0.085338132,148.8833747
1.538,-0.094276875,148.8833747
1.539,-0.100661691,148.8833747
1.54,-0.10417334,148.8833747
1.541,-0.103854099,148.8833747
1.542,-0.099384728,148.8833747
1.543,-0.090445985,148.8833747
1.544,-0.077676352,148.8833747
1.545,-0.062033552,148.8833747
1.546,-0.044794548,148.8833747
1.547,-0.027236303,148.8833747
1.548,-0.01031654,148.8833747
1.549,0.004368537,148.8833747
1.55,0.015541966,148.8833747
1.551,0.023203745,148.8833747
1.552,0.026715394,148.8833747
1.553,0.026076913,148.8833747
1.554,0.021926782,148.8833747
1.555,0.014903484,148.8833747
1.556,0.006603223,148.8833747
1.557,-0.001697038,148.8833747
1.558,-0.009678059,148.8833747
1.559,-0.015743634,148.8833747
1.56,-0.018936042,148.8833747
1.561,-0.018936042,148.8833747
1.562,-0.015424393,148.8833747
1.563,-0.008401095,148.8833747
1.564,0.001814611,148.8833747
1.565,0.013945762,148.8833747
1.566,0.027353876,148.8833747
1.567,0.040442749,148.8833747
1.568,0.051935419,148.8833747
1.569,0.060554921,148.8833747
1.57,0.065662774,148.8833747
1.571,0.066620496,148.8833747
1.572,0.063108847,148.8833747
1.573,0.055447068,148.8833747
1.574,0.043954398,148.8833747
1.575,0.029907803,148.8833747
1.576,0.014265003,148.8833747
1.577,-0.001377797,148.8833747
1.578,-0.016382116,148.8833747
1.579,-0.029151748,148.8833747
1.58,-0.038728973,148.8833747
1.581,-0.044475307,148.8833747
1.582,-0.046071512,148.8833747
1.583,-0.043517585,148.8833747
1.584,-0.037132769,148.8833747
1.585,-0.028194026,148.8833747
1.586,-0.017659079,148.8833747
1.587,-0.006804891,148.8833747
1.588,0.002453092,148.8833747
1.589,0.00915715,148.8833747
1.59,0.012668798,148.8833747
1.591,0.012030317,148.8833747
1.592,0.006603223,148.8833747
1.593,-0.002654761,148.8833747
1.594,-0.016382116,148.8833747
1.595,-0.032982638,148.8833747
1.596,-0.051498605,148.8833747
1.597,-0.070333814,166.2049861
1.598,-0.08853054,166.2049861
1.599,-0.104492581,166.2049861
1.6,-0.117581454,166.2049861
1.601,-0.127158679,166.2049861
1.602,-0.132266532,166.2049861
1.603,-0.132905013,166.2049861
1.604,-0.130031846,166.2049861
1.605,-0.12364703,166.2049861
1.606,-0.115027528,166.2049861
1.607,-0.105769544,166.2049861
1.608,-0.097150042,166.2049861
1.609,-0.089807503,166.2049861
1.61,-0.085657373,166.2049861
1.611,-0.085018891,166.2049861
1.612,-0.08853054,166.2049861
1.613,-0.095873079,166.2049861
1.614,-0.107046507,166.2049861
1.615,-0.120773862,166.2049861
1.616,-0.136097421,166.2049861
1.617,-0.151420981,166.2049861
1.618,-0.166106058,166.2049861
1.619,-0.178875691,166.2049861
1.62,-0.188452915,166.2049861
1.621,-0.194518491,166.2049861
1.622,-0.196433936,166.2049861
1.623,-0.19419925,166.2049861
1.624,-0.188133674,166.2049861
1.625,-0.179194932,166.2049861
1.626,-0.168659985,166.2049861
1.627,-0.157805797,166.2049861
1.628,-0.147590091,166.2049861
1.629,-0.13960907,166.2049861
1.63,-0.134820458,166.2049861
1.631,-0.133543495,166.2049861
1.632,-0.136416662,166.2049861
1.633,-0.143120719,166.2049861
1.634,-0.153655666,166.2049861
1.635,-0.16674454,166.2049861
1.636,-0.181748858,166.2049861
1.637,-0.196753176,166.2049861
1.638,-0.211438254,166.2049861
1.639,-0.223888646,166.2049861
1.64,-0.23346587,166.2049861
1.641,-0.239212205,166.2049861
1.642,-0.240489168,166.2049861
1.643,-0.23729676,166.2049861
1.644,-0.229954221,166.2049861
1.645,-0.219100033,166.2049861
1.646,-0.206649642,166.2049861
1.647,-0.193241527,166.2049861
1.648,-0.180471895,166.2049861
1.649,-0.169936948,166.2049861
1.65,-0.162275168,166.2049861
1.651,-0.158125038,166.2049861
1.652,-0.157805797,166.2049861
1.653,-0.161636687,166.2049861
1.654,-0.169298466,166.2049861
1.655,-0.179514172,166.2049861
1.656,-0.191645323,166.2049861
1.657,-0.204414956,166.2049861
1.658,-0.216546107,166.2049861
1.659,-0.227081054,166.2049861
1.66,-0.234742833,166.2049861
1.661,-0.238573723,166.2049861
1.662,-0.237935242,166.2049861
1.663,-0.232508148,166.2049861
1.664,-0.223250164,166.2049861
1.665,-0.210799772,166.2049861
1.666,-0.196433936,166.2049861
1.667,-0.181429617,166.2049861
1.668,-0.167063781,166.2049861
1.669,-0.154613389,166.2049861
1.67,-0.144716924,166.2049861
1.671,-0.138651348,166.2049861
1.672,-0.136735903,166.2049861
1.673,-0.13928983,166.2049861
1.674,-0.145674646,166.2049861
1.675,-0.15525187,166.2049861
1.676,-0.16674454,166.2049861
1.677,-0.179194932,166.2049861
1.678,-0.190687601,166.2049861
1.679,-0.200903307,166.2049861
1.68,-0.208245846,166.2049861
1.681,-0.211757495,166.2049861
1.682,-0.211438254,166.2049861
1.683,-0.206649642,166.2049861
1.684,-0.19803014,166.2049861
1.685,-0.18621823,166.2049861
1.686,-0.171852393,166.2049861
1.687,-0.156528834,166.2049861
1.688,-0.141843756,166.2049861
1.689,-0.128754883,166.2049861
1.69,-0.118219936,166.2049861
1.691,-0.111196638,166.2049861
1.692,-0.108323471,166.2049861
1.693,-0.109281193,166.2049861
1.694,-0.114389046,166.2049861
1.695,-0.122370066,166.2049861
1.696,-0.132905013,166.2049861
1.697,-0.143759201,166.2049861
1.698,-0.154613389,166.2049861
1.699,-0.163552132,166.2049861
1.7,-0.169617707,166.2049861
1.701,-0.172490874,166.2049861
1.702,-0.17057543,166.2049861
1.703,-0.164829095,166.2049861
1.704,-0.154613389,166.2049861
1.705,-0.141205275,166.2049861
1.706,-0.125562475,166.2049861
1.707,-0.108642711,166.2049861
1.708,-0.092680671,166.2049861
1.709,-0.077995593,166.2049861
1.71,-0.066183683,166.2049861
1.711,-0.058202663,166.2049861
1.712,-0.054052532,166.2049861
1.713,-0.054371773,166.2049861
1.714,-0.058841144,166.2049861
1.715,-0.066502924,166.2049861
1.716,-0.076399389,166.2049861
1.717,-0.087253577,166.2049861
1.718,-0.098107764,166.2049861
1.719,-0.107365748,166.2049861
1.72,-0.113750564,166.2049861
1.721,-0.116942973,166.2049861
1.722,-0.115666009,166.2049861
1.723,-0.110238915,166.2049861
1.724,-0.100661691,166.2049861
1.725,-0.087892058,166.2049861
1.726,-0.07288774,166.2049861
1.727,-0.056925699,166.2049861
1.728,-0.041282899,166.2049861
1.729,-0.027874785,166.2049861
1.73,-0.017020597,166.2049861
1.731,-0.009997299,166.2049861
1.732,-0.007762614,166.2049861
1.733,-0.01031654,166.2049861
1.734,-0.017339838,166.2049861
1.735,-0.028194026,166.2049861
1.736,-0.042240622,166.2049861
1.737,-0.057883422,166.2049861
1.738,-0.073845462,166.2049861
1.739,-0.089169022,166.2049861
1.74,-0.102577136,166.2049861
1.741,-0.113112083,166.2049861
1.742,-0.119496899,166.2049861
1.743,-0.122050826,166.2049861
1.744,-0.120454622,166.2049861
1.745,-0.115346768,166.2049861
1.746,-0.107684989,166.2049861
1.747,-0.098746246,166.2049861
1.748,-0.089488262,166.2049861
1.749,-0.081507242,166.2049861
1.75,-0.076080148,166.2049861
1.751,-0.073845462,166.2049861
1.752,-0.075760907,166.2049861
1.753,-0.081826483,166.2049861
1.754,-0.091722948,166.2049861
1.755,-0.105131062,166.2049861
1.756,-0.120773862,166.2049861
1.757,-0.138012866,166.2049861
1.758,-0.155571111,166.2049861
1.759,-0.172490874,166.2049861
1.76,-0.187495193,166.2049861
1.761,-0.198987862,166.2049861
1.762,-0.206649642,166.2049861
1.763,-0.209522809,166.2049861
1.764,-0.208245846,166.2049861
1.765,-0.203137993,166.2049861
1.766,-0.195795454,166.2049861
1.767,-0.18653747,166.2049861
1.768,-0.177279487,166.2049861
1.769,-0.168979225,166.2049861
1.77,-0.162594409,166.2049861
1.771,-0.159402001,166.2049861
1.772,-0.160359723,166.2049861
1.773,-0.165148336,166.2049861
1.774,-0.173767838,166.2049861
1.775,-0.185579748,166.2049861
1.776,-0.199626344,166.2049861
1.777,-0.214949903,166.2049861
1.778,-0.229954221,166.2049861
1.779,-0.243681576,166.2049861
1.78,-0.254855005,166.2049861
1.781,-0.262516784,166.2049861
1.782,-0.266347674,166.2049861
1.783,-0.266028433,166.2049861
1.784,-0.261878303,166.2049861
1.785,-0.253897282,166.2049861
1.786,-0.243043095,166.2049861
1.787,-0.230592703,166.2049861
1.788,-0.21782307,166.2049861
1.789,-0.206330401,166.2049861
1.79,-0.197072417,166.2049861
1.791,-0.190687601,166.2049861
1.792,-0.188452915,166.2049861
1.793,-0.190049119,166.2049861
1.794,-0.195795454,166.2049861
1.795,-0.205053438,166.2049861
1.796,-0.217184589,166.2049861
1.797,-0.230592703,166.2049861
1.798,-0.244639299,166.2049861
1.799,-0.258047413,166.2049861
1.8,-0.269220842,166.2049861
1.801,-0.277521103,166.2049861
1.802,-0.281671233,166.2049861
1.803,-0.281351992,166.2049861
1.804,-0.276882621,166.2049861
1.805,-0.268263119,166.2049861
1.806,-0.25677045,166.2049861
1.807,-0.244000817,166.2049861
1.808,-0.230592703,166.2049861
1.809,-0.218142311,166.2049861
1.81,-0.207926605,166.2049861
1.811,-0.200584066,166.2049861
1.812,-0.197072417,166.2049861
1.813,-0.197710899,166.2049861
1.814,-0.202499511,166.2049861
1.815,-0.210799772,166.2049861
1.816,-0.221973201,166.2049861
1.817,-0.234423593,166.2049861
1.818,-0.247193225,166.2049861
1.819,-0.259005135,166.2049861
1.82,-0.268901601,166.2049861
1.821,-0.275605658,166.2049861
1.822,-0.279117307,166.2049861
1.823,-0.278478825,166.2049861
1.824,-0.274009454,166.2049861
1.825,-0.265709193,166.2049861
1.826,-0.255174246,166.2049861
1.827,-0.242723854,166.2049861
1.828,-0.229954221,166.2049861
1.829,-0.218142311,166.2049861
1.83,-0.208565087,166.2049861
1.831,-0.201861029,166.2049861
1.832,-0.198987862,166.2049861
1.833,-0.199626344,166.2049861
1.834,-0.204095715,166.2049861
1.835,-0.211438254,166.2049861
1.836,-0.220376997,166.2049861
1.837,-0.229954221,166.2049861
1.838,-0.238573723,166.2049861
1.839,-0.24527778,166.2049861
1.84,-0.248470189,166.2049861
1.841,-0.247512466,166.2049861
1.842,-0.241446891,166.2049861
1.843,-0.230273462,166.2049861
1.844,-0.21399218,166.2049861
1.845,-0.193241527,166.2049861
1.846,-0.168979225,166.2049861
1.847,-0.143120719,166.2049861
1.848,-0.116304491,166.2049861
1.849,-0.090126744,166.2049861
1.85,-0.065545201,166.2049861
1.851,-0.043517585,166.2049861
1.852,-0.024682377,166.2049861
1.853,-0.009678059,166.2049861
1.854,0.000856888,166.2049861
1.855,0.006922464,166.2049861
1.856,0.010114872,166.2049861
1.857,0.010114872,166.2049861
1.858,0.008837909,166.2049861
1.859,0.006603223,166.2049861
1.86,0.004368537,166.2049861
1.861,0.002453092,166.2049861
1.862,0.00149537,166.2049861
1.863,0.001176129,166.2049861
1.864,0.00149537,166.2049861
1.865,0.00149537,166.2049861
1.866,-0.000100834,166.2049861
1.867,-0.003931724,166.2049861
1.868,-0.010955022,166.2049861
1.869,-0.022447691,166.2049861
1.87,-0.039048214,166.2049861
1.871,-0.06107583,166.2049861
1.872,-0.089169022,166.2049861
1.873,-0.123008548,166.2049861
1.874,-0.161955928,166.2049861
1.875,-0.204734197,166.2049861
1.876,-0.249427911,166.2049861
1.877,-0.294440866,166.2049861
1.878,-0.337857617,166.2049861
1.879,-0.377124237,166.2049861
1.88,-0.410963764,166.2049861
1.881,-0.437779992,166.2049861
1.882,-0.456934441,166.2049861
1.883,-0.468107869,166.2049861
1.884,-0.471300278,166.2049861
1.885,-0.467469388,166.2049861
1.886,-0.457572923,166.2049861
1.887,-0.443526327,166.2049861
1.888,-0.426925804,166.2049861
1.889,-0.4096868,166.2049861
1.89,-0.393086278,166.2049861
1.891,-0.3784012,166.2049861
1.892,-0.366908531,166.2049861
1.893,-0.359565992,166.2049861
1.894,-0.356054343,166.2049861
1.895,-0.356373584,166.2049861
1.896,-0.359885233,166.2049861
1.897,-0.365312327,166.2049861
1.898,-0.371697143,166.2049861
1.899,-0.377762719,166.2049861
1.9,-0.381912849,166.2049861
1.901,-0.383189813,166.2049861
1.902,-0.380635886,166.2049861
1.903,-0.373612588,166.2049861
1.904,-0.361800678,166.2049861
1.905,-0.346157878,166.2049861
1.906,-0.327003429,166.2049861
1.907,-0.305614294,166.2049861
1.908,-0.283267437,166.2049861
1.909,-0.261559062,166.2049861
1.91,-0.241446891,166.2049861
1.911,-0.224207887,166.2049861
1.912,-0.211119013,166.2049861
1.913,-0.202499511,166.2049861
1.914,-0.19834938,166.2049861
1.915,-0.198668621,166.2049861
1.916,-0.202818752,166.2049861
1.917,-0.20984205,166.2049861
1.918,-0.21782307,166.2049861
1.919,-0.226442572,166.2049861
1.92,-0.233785111,166.2049861
1.921,-0.238892964,166.2049861
1.922,-0.24112765,166.2049861
1.923,-0.239850686,166.2049861
1.924,-0.235062074,166.2049861
1.925,-0.226442572,166.2049861
1.926,-0.214949903,166.2049861
1.927,-0.201541789,166.2049861
1.928,-0.187495193,166.2049861
1.929,-0.174087079,166.2049861
1.93,-0.161955928,166.2049861
1.931,-0.152378703,166.2049861
1.932,-0.146632368,166.2049861
1.933,-0.144716924,166.2049861
1.934,-0.14727085,166.2049861
1.935,-0.153974907,166.2049861
1.936,-0.163552132,166.2049861
1.937,-0.175364042,166.2049861
1.938,-0.188133674,166.2049861
1.939,-0.200584066,166.2049861
1.94,-0.211119013,166.2049861
1.941,-0.219100033,166.2049861
1.942,-0.223569405,166.2049861
1.943,-0.223888646,166.2049861
1.944,-0.220376997,166.2049861
1.945,-0.213034458,166.2049861
1.946,-0.20218027,166.2049861
1.947,-0.189410638,166.2049861
1.948,-0.175364042,166.2049861
1.949,-0.161636687,166.2049861
1.95,-0.149186295,166.2049861
1.951,-0.13928983,166.2049861
1.952,-0.133224254,166.2049861
1.953,-0.130989568,166.2049861
1.954,-0.132905013,166.2049861
1.955,-0.138651348,166.2049861
1.956,-0.147909332,166.2049861
1.957,-0.15908276,166.2049861
1.958,-0.171533152,166.2049861
1.959,-0.183664303,166.2049861
1.96,-0.19419925,165.7458564
1.961,-0.20218027,165.7458564
1.962,-0.206330401,165.7458564
1.963,-0.206649642,165.7458564
1.964,-0.20218027,165.7458564
1.965,-0.193560768,165.7458564
1.966,-0.181748858,165.7458564
1.967,-0.167383021,165.7458564
1.968,-0.151740221,165.7458564
1.969,-0.136416662,165.7458564
1.97,-0.122370066,165.7458564
1.971,-0.110877397,165.7458564
1.972,-0.102896377,165.7458564
1.973,-0.099065487,165.7458564
1.974,-0.099703969,165.7458564
1.975,-0.10417334,165.7458564
1.976,-0.11215436,165.7458564
1.977,-0.122689307,165.7458564
1.978,-0.134181977,165.7458564
1.979,-0.145674646,165.7458564
1.98,-0.156209593,165.7458564
1.981,-0.164190613,165.7458564
1.982,-0.168659985,165.7458564
1.983,-0.169298466,165.7458564
1.984,-0.165467577,165.7458564
1.985,-0.157486556,165.7458564
1.986,-0.145993887,165.7458564
1.987,-0.131947291,165.7458564
1.988,-0.116623732,165.7458564
1.989,-0.101300173,165.7458564
1.99,-0.087253577,165.7458564
1.991,-0.075760907,165.7458564
1.992,-0.067141405,165.7458564
1.993,-0.062352793,165.7458564
1.994,-0.062033552,165.7458564
1.995,-0.065545201,165.7458564
1.996,-0.072568499,165.7458564
1.997,-0.081826483,165.7458564
1.998,-0.092042189,165.7458564
1.999,-0.102577136,165.7458564
2,-0.111515879,165.7458564
2.001,-0.117900695,165.7458564
2.002,-0.121093103,165.7458564
2.003,-0.120135381,165.7458564
2.004,-0.115027528,165.7458564
2.005,-0.105450303,165.7458564
2.006,-0.092042189,165.7458564
2.007,-0.076080148,165.7458564
2.008,-0.058841144,165.7458564
2.009,-0.040963658,165.7458564
2.01,-0.024682377,165.7458564
2.011,-0.010635781,165.7458564
2.012,-0.000100834,165.7458564
2.013,0.005964741,165.7458564
2.014,0.008518668,165.7458564
2.015,0.006922464,165.7458564
2.016,0.002453092,165.7458564
2.017,-0.004570206,165.7458564
2.018,-0.012870467,165.7458564
2.019,-0.021170728,165.7458564
2.02,-0.028194026,165.7458564
2.021,-0.032982638,165.7458564
2.022,-0.034898083,165.7458564
2.023,-0.032663397,165.7458564
2.024,-0.026278581,165.7458564
2.025,-0.016062875,165.7458564
2.026,-0.002016279,165.7458564
2.027,0.014265003,165.7458564
2.028,0.032461729,165.7458564
2.029,0.050658456,165.7458564
2.03,0.067258978,165.7458564
2.031,0.081305574,165.7458564
2.032,0.091202039,165.7458564
2.033,0.096629133,165.7458564
2.034,0.097267615,165.7458564
2.035,0.093117484,165.7458564
2.036,0.084817223,165.7458564
2.037,0.073963035,165.7458564
2.038,0.060874162,165.7458564
2.039,0.047466047,165.7458564
2.04,0.035015656,165.7458564
2.041,0.024161468,165.7458564
2.042,0.016818929,165.7458564
2.043,0.012988039,165.7458564
2.044,0.01330728,165.7458564
2.045,0.017776652,165.7458564
2.046,0.026076913,165.7458564
2.047,0.0369311,165.7458564
2.048,0.049700733,165.7458564
2.049,0.062789607,165.7458564
2.05,0.074282276,165.7458564
2.051,0.08354026,165.7458564
2.052,0.089286594,165.7458564
2.053,0.090882798,165.7458564
2.054,0.088009631,165.7458564
2.055,0.080347851,165.7458564
2.056,0.069174423,165.7458564
2.057,0.054808586,165.7458564
2.058,0.038527305,165.7458564
2.059,0.021607541,165.7458564
2.06,0.005645501,165.7458564
2.061,-0.008720336,165.7458564
2.062,-0.020213005,165.7458564
2.063,-0.027874785,165.7458564
2.064,-0.031705675,165.7458564
2.065,-0.031067193,165.7458564
2.066,-0.026917063,165.7458564
2.067,-0.019574524,165.7458564
2.068,-0.01031654,165.7458564
2.069,-0.000739316,165.7458564
2.07,0.008199427,165.7458564
2.071,0.015222725,165.7458564
2.072,0.019053615,165.7458564
2.073,0.019053615,165.7458564
2.074,0.014903484,165.7458564
2.075,0.006603223,165.7458564
2.076,-0.005208687,165.7458564
2.077,-0.020213005,165.7458564
2.078,-0.036813528,165.7458564
2.079,-0.054371773,165.7458564
2.08,-0.070972295,165.7458564
2.081,-0.085976613,165.7458564
2.082,-0.098427005,165.7458564
2.083,-0.107046507,165.7458564
2.084,-0.111515879,165.7458564
2.085,-0.11183512,165.7458564
2.086,-0.10800423,165.7458564
2.087,-0.100980932,165.7458564
2.088,-0.092042189,165.7458564
2.089,-0.082145724,165.7458564
2.09,-0.07288774,165.7458564
2.091,-0.065545201,165.7458564
2.092,-0.06107583,165.7458564
2.093,-0.060437348,165.7458564
2.094,-0.063629756,165.7458564
2.095,-0.070972295,165.7458564
2.096,-0.081826483,165.7458564
2.097,-0.095234597,165.7458564
2.098,-0.109919675,165.7458564
2.099,-0.125243234,165.7458564
2.1,-0.13928983,165.7458564
2.101,-0.151740221,165.7458564
2.102,-0.160998205,165.7458564
2.103,-0.16674454,165.7458564
2.104,-0.168021503,165.7458564
2.105,-0.165467577,165.7458564
2.106,-0.158763519,165.7458564
2.107,-0.149186295,165.7458564
2.108,-0.138012866,165.7458564
2.109,-0.126200956,165.7458564
2.11,-0.115027528,165.7458564
2.111,-0.106088785,165.7458564
2.112,-0.100023209,165.7458564
2.113,-0.097469283,165.7458564
2.114,-0.099384728,165.7458564
2.115,-0.105131062,165.7458564
2.116,-0.115027528,165.7458564
2.117,-0.127477919,165.7458564
2.118,-0.142162997,165.7458564
2.119,-0.157486556,165.7458564
2.12,-0.172171634,165.7458564
2.121,-0.185260507,165.7458564
2.122,-0.195156972,165.7458564
2.123,-0.201222548,165.7458564
2.124,-0.202499511,165.7458564
2.125,-0.199307103,165.7458564
2.126,-0.191645323,165.7458564
2.127,-0.180471895,165.7458564
2.128,-0.167063781,165.7458564
2.129,-0.152697944,165.7458564
2.13,-0.138970589,165.7458564
2.131,-0.126520197,165.7458564
2.132,-0.116942973,165.7458564
2.133,-0.110877397,165.7458564
2.134,-0.108961952,165.7458564
2.135,-0.110877397,165.7458564
2.136,-0.116942973,165.7458564
2.137,-0.125562475,165.7458564
2.138,-0.136416662,165.7458564
2.139,-0.147909332,165.7458564
2.14,-0.15908276,165.7458564
2.141,-0.168340744,165.7458564
2.142,-0.175044801,165.7458564
2.143,-0.178237209,165.7458564
2.144,-0.177279487,165.7458564
2.145,-0.172171634,165.7458564
2.146,-0.163232891,165.7458564
2.147,-0.15110174,165.7458564
2.148,-0.137055144,165.7458564
2.149,-0.121731585,165.7458564
2.15,-0.107046507,165.7458564
2.151,-0.093957634,165.7458564
2.152,-0.083741928,165.7458564
2.153,-0.077037871,165.7458564
2.154,-0.074803185,165.7458564
2.155,-0.07671863,165.7458564
2.156,-0.083103446,165.7458564
2.157,-0.09236143,165.7458564
2.158,-0.103854099,165.7458564
2.159,-0.116304491,165.7458564
2.16,-0.128435642,165.7458564
2.161,-0.138970589,165.7458564
2.162,-0.146951609,165.7458564
2.163,-0.15110174,165.7458564
2.164,-0.15110174,165.7458564
2.165,-0.146951609,165.7458564
2.166,-0.138332107,165.7458564
2.167,-0.126200956,165.7458564
2.168,-0.111515879,165.7458564
2.169,-0.095873079,165.7458564
2.17,-0.08054952,165.7458564
2.171,-0.065864442,165.7458564
2.172,-0.053733291,165.7458564
2.173,-0.044794548,165.7458564
2.174,-0.039367454,165.7458564
2.175,-0.038090491,165.7458564
2.176,-0.040325177,165.7458564
2.177,-0.045752271,165.7458564
2.178,-0.053094809,165.7458564
2.179,-0.061395071,165.7458564
2.18,-0.069376091,165.7458564
2.181,-0.075760907,165.7458564
2.182,-0.079911038,165.7458564
2.183,-0.080230279,165.7458564
2.184,-0.07671863,165.7458564
2.185,-0.06905685,165.7458564
2.186,-0.057883422,165.7458564
2.187,-0.043198344,165.7458564
2.188,-0.026917063,165.7458564
2.189,-0.009678059,165.7458564
2.19,0.006603223,165.7458564
2.191,0.021607541,165.7458564
2.192,0.033419451,165.7458564
2.193,0.041719713,165.7458564
2.194,0.045550602,165.7458564
2.195,0.04459288,165.7458564
2.196,0.039804268,165.7458564
2.197,0.031184766,165.7458564
2.198,0.020011337,165.7458564
2.199,0.007560945,165.7458564
2.2,-0.004570206,165.7458564
2.201,-0.015743634,165.7458564
2.202,-0.024682377,165.7458564
2.203,-0.030428712,165.7458564
2.204,-0.032663397,165.7458564
2.205,-0.031067193,165.7458564
2.206,-0.025640099,165.7458564
2.207,-0.017020597,165.7458564
2.208,-0.005847169,165.7458564
2.209,0.005964741,165.7458564
2.21,0.017776652,165.7458564
2.211,0.027992358,165.7458564
2.212,0.035015656,165.7458564
2.213,0.038208064,165.7458564
2.214,0.037250341,165.7458564
2.215,0.031184766,165.7458564
2.216,0.021288301,165.7458564
2.217,0.007560945,165.7458564
2.218,-0.008081855,165.7458564
2.219,-0.025640099,165.7458564
2.22,-0.043198344,165.7458564
2.221,-0.059798867,165.7458564
2.222,-0.074164703,165.7458564
2.223,-0.085338132,165.7458564
2.224,-0.092680671,165.7458564
2.225,-0.095553838,165.7458564
2.226,-0.094276875,165.7458564
2.227,-0.089807503,165.7458564
2.228,-0.082464964,165.7458564
2.229,-0.073845462,165.7458564
2.23,-0.065545201,165.7458564
2.231,-0.058202663,165.7458564
2.232,-0.05341405,165.7458564
2.233,-0.052137087,165.7458564
2.234,-0.054371773,165.7458564
2.235,-0.06107583,165.7458564
2.236,-0.071610777,165.7458564
2.237,-0.085018891,165.7458564
2.238,-0.100980932,165.7458564
2.239,-0.117900695,165.7458564
2.24,-0.134820458,165.7458564
2.241,-0.150782499,165.7458564
2.242,-0.164190613,165.7458564
2.243,-0.17472556,165.7458564
2.244,-0.180791136,165.7458564
2.245,-0.182706581,165.7458564
2.246,-0.180152654,165.7458564
2.247,-0.173767838,165.7458564
2.248,-0.164829095,165.7458564
2.249,-0.153974907,165.7458564
2.25,-0.143120719,165.7458564
2.251,-0.133224254,165.7458564
2.252,-0.125881715,165.7458564
2.253,-0.121412344,165.7458564
2.254,-0.121093103,165.7458564
2.255,-0.124923993,165.7458564
2.256,-0.132905013,165.7458564
2.257,-0.144078442,165.7458564
2.258,-0.157805797,165.7458564
2.259,-0.172490874,165.7458564
2.26,-0.187495193,165.7458564
2.261,-0.200903307,165.7458564
2.262,-0.212076736,165.7458564
2.263,-0.219738515,165.7458564
2.264,-0.223569405,165.7458564
2.265,-0.222930923,165.7458564
2.266,-0.218142311,165.7458564
2.267,-0.209522809,165.7458564
2.268,-0.197710899,165.7458564
2.269,-0.183983544,165.7458564
2.27,-0.170256189,165.7458564
2.271,-0.157167315,165.7458564
2.272,-0.146632368,165.7458564
2.273,-0.138970589,165.7458564
2.274,-0.13545894,165.7458564
2.275,-0.136097421,165.7458564
2.276,-0.140886034,165.7458564
2.277,-0.149186295,165.7458564
2.278,-0.160359723,165.7458564
2.279,-0.172810115,165.7458564
2.28,-0.185579748,165.7458564
2.281,-0.197710899,165.7458564
2.282,-0.207607364,165.7458564
2.283,-0.214311421,165.7458564
2.284,-0.217503829,165.7458564
2.285,-0.216226866,165.7458564
2.286,-0.211119013,165.7458564
2.287,-0.20218027,165.7458564
2.288,-0.190687601,165.7458564
2.289,-0.177917968,165.7458564
2.29,-0.164509854,165.7458564
2.291,-0.152378703,165.7458564
2.292,-0.142482238,165.7458564
2.293,-0.135778181,165.7458564
2.294,-0.133224254,165.7458564
2.295,-0.134501217,165.7458564
2.296,-0.140247552,165.7458564
2.297,-0.149505536,165.7458564
2.298,-0.161636687,165.7458564
2.299,-0.175364042,165.7458564
2.3,-0.189410638,165.7458564
2.301,-0.202818752,165.7458564
2.302,-0.21399218,165.7458564
2.303,-0.22165396,165.7458564
2.304,-0.224846368,165.7458564
2.305,-0.223250164,165.7458564
2.306,-0.216546107,165.7458564
2.307,-0.205372678,165.7458564
2.308,-0.19036836,165.7458564
2.309,-0.172490874,165.7458564
2.31,-0.153017185,165.7458564
2.311,-0.133224254,165.7458564
2.312,-0.114708287,165.7458564
2.313,-0.098427005,149.6259352
2.314,-0.085018891,149.6259352
2.315,-0.075441667,149.6259352
2.316,-0.069695332,149.6259352
2.317,-0.067141405,149.6259352
2.318,-0.066822165,149.6259352
2.319,-0.068418369,149.6259352
2.32,-0.070333814,149.6259352
2.321,-0.070653054,149.6259352
2.322,-0.06905685,149.6259352
2.323,-0.063629756,149.6259352
2.324,-0.053733291,149.6259352
2.325,-0.039048214,149.6259352
2.326,-0.019893765,149.6259352
2.327,0.003410815,149.6259352
2.328,0.02895008,149.6259352
2.329,0.056085549,149.6259352
2.33,0.083221019,149.6259352
2.331,0.108441043,149.6259352
2.332,0.130149419,149.6259352
2.333,0.146749941,149.6259352
2.334,0.156965647,149.6259352
2.335,0.159838814,149.6259352
2.336,0.154730961,149.6259352
2.337,0.141961329,149.6259352
2.338,0.121849157,149.6259352
2.339,0.09567141,149.6259352
2.34,0.065024292,149.6259352
2.341,0.031184766,149.6259352
2.342,-0.004250965,149.6259352
2.343,-0.040005936,149.6259352
2.344,-0.074483944,149.6259352
2.345,-0.106727266,149.6259352
2.346,-0.136097421,149.6259352
2.347,-0.161955928,149.6259352
2.348,-0.184302785,149.6259352
2.349,-0.203137993,149.6259352
2.35,-0.219419274,149.6259352
2.351,-0.233785111,149.6259352
2.352,-0.246873984,149.6259352
2.353,-0.259643617,149.6259352
2.354,-0.27241325,149.6259352
2.355,-0.286140605,149.6259352
2.356,-0.301144923,149.6259352
2.357,-0.316787723,149.6259352
2.358,-0.332749764,149.6259352
2.359,-0.348392564,149.6259352
2.36,-0.3627584,149.6259352
2.361,-0.374889551,149.6259352
2.362,-0.383828294,149.6259352
2.363,-0.389255388,149.6259352
2.364,-0.38989387,149.6259352
2.365,-0.385424498,149.6259352
2.366,-0.376485755,149.6259352
2.367,-0.363396882,149.6259352
2.368,-0.346477119,149.6259352
2.369,-0.327641911,149.6259352
2.37,-0.307210499,149.6259352
2.371,-0.287098327,149.6259352
2.372,-0.268263119,149.6259352
2.373,-0.251981837,149.6259352
2.374,-0.238573723,149.6259352
2.375,-0.22931574,149.6259352
2.376,-0.224207887,149.6259352
2.377,-0.222611682,149.6259352
2.378,-0.224207887,149.6259352
2.379,-0.227719536,149.6259352
2.38,-0.231550425,149.6259352
2.381,-0.235062074,149.6259352
2.382,-0.236977519,149.6259352
2.383,-0.236339038,149.6259352
2.384,-0.232508148,149.6259352
2.385,-0.224846368,149.6259352
2.386,-0.213353699,149.6259352
2.387,-0.198668621,149.6259352
2.388,-0.181110376,149.6259352
2.389,-0.162275168,149.6259352
2.39,-0.14343996,149.6259352
2.391,-0.125562475,149.6259352
2.392,-0.110238915,149.6259352
2.393,-0.098107764,149.6259352
2.394,-0.090445985,149.6259352
2.395,-0.087253577,149.6259352
2.396,-0.088849781,149.6259352
2.397,-0.094596115,149.6259352
2.398,-0.10417334,149.6259352
2.399,-0.116304491,149.6259352
2.4,-0.129393364,149.6259352
2.401,-0.142162997,149.6259352
2.402,-0.153655666,149.6259352
2.403,-0.161955928,149.6259352
2.404,-0.16674454,149.6259352
2.405,-0.16674454,149.6259352
2.406,-0.162594409,149.6259352
2.407,-0.153974907,149.6259352
2.408,-0.142162997,149.6259352
2.409,-0.128116401,149.6259352
2.41,-0.112792842,149.6259352
2.411,-0.097469283,149.6259352
2.412,-0.084061169,149.6259352
2.413,-0.073206981,149.6259352
2.414,-0.066183683,149.6259352
2.415,-0.063629756,149.6259352
2.416,-0.06522596,149.6259352
2.417,-0.071291536,149.6259352
2.418,-0.08054952,149.6259352
2.419,-0.09236143,149.6259352
2.42,-0.105131062,149.6259352
2.421,-0.118219936,149.6259352
2.422,-0.129712605,149.6259352
2.423,-0.138970589,149.6259352
2.424,-0.144716924,149.6259352
2.425,-0.146313128,149.6259352
2.426,-0.143759201,149.6259352
2.427,-0.136416662,149.6259352
2.428,-0.125562475,149.6259352
2.429,-0.11215436,149.6259352
2.43,-0.097150042,149.6259352
2.431,-0.082145724,149.6259352
2.432,-0.068418369,149.6259352
2.433,-0.056925699,149.6259352
2.434,-0.04926392,149.6259352
2.435,-0.045752271,149.6259352
2.436,-0.046390752,149.6259352
2.437,-0.051179365,149.6259352
2.438,-0.059160385,149.6259352
2.439,-0.069695332,149.6259352
2.44,-0.081188001,149.6259352
2.441,-0.092680671,149.6259352
2.442,-0.102577136,149.6259352
2.443,-0.110558156,149.6259352
2.444,-0.115346768,149.6259352
2.445,-0.116304491,149.6259352
2.446,-0.113112083,149.6259352
2.447,-0.106088785,149.6259352
2.448,-0.095553838,149.6259352
2.449,-0.082145724,149.6259352
2.45,-0.067779887,149.6259352
2.451,-0.053094809,149.6259352
2.452,-0.040005936,149.6259352
2.453,-0.029151748,149.6259352
2.454,-0.021489969,149.6259352
2.455,-0.01797832,149.6259352
2.456,-0.018616801,149.6259352
2.457,-0.022766932,149.6259352
2.458,-0.030428712,149.6259352
2.459,-0.040644418,149.6259352
2.46,-0.051817846,149.6259352
2.461,-0.062991275,149.6259352
2.462,-0.072568499,149.6259352
2.463,-0.079591797,149.6259352
2.464,-0.083103446,149.6259352
2.465,-0.082464964,149.6259352
2.466,-0.077357111,149.6259352
2.467,-0.068099128,149.6259352
2.468,-0.055329495,149.6259352
2.469,-0.040325177,149.6259352
2.47,-0.023724654,149.6259352
2.471,-0.007124132,149.6259352
2.472,0.007880186,149.6259352
2.473,0.020649819,149.6259352
2.474,0.030227043,149.6259352
2.475,0.035973378,149.6259352
2.476,0.037250341,149.6259352
2.477,0.034696415,149.6259352
2.478,0.028311598,149.6259352
2.479,0.019372856,149.6259352
2.48,0.00915715,149.6259352
2.481,-0.001377797,149.6259352
2.482,-0.010955022,149.6259352
2.483,-0.018616801,149.6259352
2.484,-0.022447691,149.6259352
2.485,-0.022447691,149.6259352
2.486,-0.017659079,149.6259352
2.487,-0.008401095,149.6259352
2.488,0.004687778,149.6259352
2.489,0.020649819,149.6259352
2.49,0.038527305,149.6259352
2.491,0.056724031,149.6259352
2.492,0.073963035,149.6259352
2.493,0.088967353,149.6259352
2.494,0.100460023,149.6259352
2.495,0.108441043,149.6259352
2.496,0.111952692,149.6259352
2.497,0.11131421,149.6259352
2.498,0.106844839,149.6259352
2.499,0.0995023,149.6259352
2.5,0.090244317,149.6259352
2.501,0.080667092,149.6259352
2.502,0.071728349,149.6259352
2.503,0.064705051,149.6259352
2.504,0.061193402,149.6259352
2.505,0.061193402,149.6259352
2.506,0.065343533,149.6259352
2.507,0.073324553,149.6259352
2.508,0.084178741,149.6259352
2.509,0.097586855,149.6259352
2.51,0.112271933,149.6259352
2.511,0.12663777,149.6259352
2.512,0.139726643,149.6259352
2.513,0.150580831,149.6259352
2.514,0.157604129,149.6259352
2.515,0.160477296,149.6259352
2.516,0.158561851,149.6259352
2.517,0.152177035,149.6259352
2.518,0.141961329,149.6259352
2.519,0.128553214,149.6259352
2.52,0.113548896,149.6259352
2.521,0.097906096,149.6259352
2.522,0.082582537,149.6259352
2.523,0.069174423,149.6259352
2.524,0.058320235,149.6259352
2.525,0.051296937,149.6259352
2.526,0.048104529,149.6259352
2.527,0.049700733,149.6259352
2.528,0.054808586,149.6259352
2.529,0.062789607,149.6259352
2.53,0.073005313,149.6259352
2.531,0.08354026,149.6259352
2.532,0.093436725,149.6259352
2.533,0.101098504,149.6259352
2.534,0.105887117,149.6259352
2.535,0.106844839,149.6259352
2.536,0.103652431,149.6259352
2.537,0.09567141,149.6259352
2.538,0.084178741,149.6259352
2.539,0.069174423,149.6259352
2.54,0.0525739,149.6259352
2.541,0.035334896,149.6259352
2.542,0.019053615,149.6259352
2.543,0.004368537,149.6259352
2.544,-0.007762614,149.6259352
2.545,-0.016062875,149.6259352
2.546,-0.020213005,149.6259352
2.547,-0.020213005,149.6259352
2.548,-0.016701357,149.6259352
2.549,-0.009997299,149.6259352
2.55,-0.002016279,149.6259352
2.551,0.006283982,149.6259352
2.552,0.014265003,149.6259352
2.553,0.020011337,149.6259352
2.554,0.023203745,149.6259352
2.555,0.022884505,149.6259352
2.556,0.018415133,149.6259352
2.557,0.010114872,149.6259352
2.558,-0.001058557,149.6259352
2.559,-0.015105152,149.6259352
2.56,-0.031067193,149.6259352
2.561,-0.047029234,149.6259352
2.562,-0.062352793,149.6259352
2.563,-0.075760907,149.6259352
2.564,-0.085976613,149.6259352
2.565,-0.092042189,149.6259352
2.566,-0.093957634,149.6259352
2.567,-0.091722948,149.6259352
2.568,-0.085338132,149.6259352
2.569,-0.076080148,149.6259352
2.57,-0.064587479,149.6259352
2.571,-0.052775569,149.6259352
2.572,-0.041282899,149.6259352
2.573,-0.032024916,149.6259352
2.574,-0.025640099,149.6259352
2.575,-0.023405414,149.6259352
2.576,-0.025001618,149.6259352
2.577,-0.031386434,149.6259352
2.578,-0.040963658,149.6259352
2.579,-0.054052532,149.6259352
2.58,-0.068737609,149.6259352
2.581,-0.084061169,149.6259352
2.582,-0.098746246,149.6259352
2.583,-0.111515879,149.6259352
2.584,-0.121093103,149.6259352
2.585,-0.127158679,149.6259352
2.586,-0.129074124,149.6259352
2.587,-0.126839438,149.6259352
2.588,-0.120454622,149.6259352
2.589,-0.111196638,149.6259352
2.59,-0.099703969,149.6259352
2.591,-0.087253577,149.6259352
2.592,-0.075441667,149.6259352
2.593,-0.06522596,149.6259352
2.594,-0.057883422,149.6259352
2.595,-0.054371773,149.6259352
2.596,-0.054371773,149.6259352
2.597,-0.058521903,149.6259352
2.598,-0.066183683,149.6259352
2.599,-0.077037871,149.6259352
2.6,-0.089488262,149.6259352
2.601,-0.102896377,149.6259352
2.602,-0.115666009,149.6259352
2.603,-0.126520197,149.6259352
2.604,-0.134181977,149.6259352
2.605,-0.138012866,149.6259352
2.606,-0.137374385,149.6259352
2.607,-0.132266532,149.6259352
2.608,-0.123008548,149.6259352
2.609,-0.110558156,149.6259352
2.61,-0.095873079,149.6259352
2.611,-0.079911038,149.6259352
2.612,-0.06490672,149.6259352
2.613,-0.051179365,149.6259352
2.614,-0.040325177,149.6259352
2.615,-0.033301879,149.6259352
2.616,-0.030428712,149.6259352
2.617,-0.032024916,149.6259352
2.618,-0.03745201,149.6259352
2.619,-0.046390752,149.6259352
2.62,-0.056925699,149.6259352
2.621,-0.068737609,149.6259352
2.622,-0.080230279,149.6259352
2.623,-0.090126744,149.6259352
2.624,-0.097788524,149.6259352
2.625,-0.102257895,149.6259352
2.626,-0.102257895,149.6259352
2.627,-0.098427005,149.6259352
2.628,-0.090445985,149.6259352
2.629,-0.078953316,149.6259352
2.63,-0.06522596,149.6259352
2.631,-0.050221642,149.6259352
2.632,-0.035217324,149.6259352
2.633,-0.02212845,149.6259352
2.634,-0.011274263,149.6259352
2.635,-0.003612483,149.6259352
2.636,-0.000100834,149.6259352
2.637,-0.000100834,149.6259352
2.638,-0.003931724,149.6259352
2.639,-0.010955022,149.6259352
2.64,-0.019893765,149.6259352
2.641,-0.030109471,149.6259352
2.642,-0.039367454,149.6259352
2.643,-0.047348475,149.6259352
2.644,-0.052456328,149.6259352
2.645,-0.053733291,149.6259352
2.646,-0.051179365,149.6259352
2.647,-0.044475307,149.6259352
2.648,-0.03362112,149.6259352
2.649,-0.019574524,149.6259352
2.65,-0.003293242,149.6259352
2.651,0.013626521,149.6259352
2.652,0.030546284,149.6259352
2.653,0.046508325,149.6259352
2.654,0.059597198,149.6259352
2.655,0.068855182,149.6259352
2.656,0.073963035,149.6259352
2.657,0.074601517,149.6259352
2.658,0.071089868,149.6259352
2.659,0.06406657,149.6259352
2.66,0.054808586,149.6259352
2.661,0.043954398,149.6259352
2.662,0.033738692,149.6259352
2.663,0.024480709,149.6259352
2.664,0.017457411,149.6259352
2.665,0.01330728,149.6259352
2.666,0.012988039,149.6259352
2.667,0.016499688,149.6259352
2.668,0.023522986,149.6259352
2.669,0.033419451,149.6259352
2.67,0.045550602,149.6259352
2.671,0.058639476,149.6259352
2.672,0.070770627,149.6259352
2.673,0.081305574,149.6259352
2.674,0.088967353,149.6259352
2.675,0.092798243,149.6259352
2.676,0.092159762,149.6259352
2.677,0.087051908,149.6259352
2.678,0.077793925,149.6259352
2.679,0.064705051,149.6259352
2.68,0.049062251,149.6259352
2.681,0.031823247,149.6259352
2.682,0.014584243,149.6259352
2.683,-0.001058557,149.6259352
2.684,-0.014466671,149.6259352
2.685,-0.024682377,149.6259352
2.686,-0.030747952,149.6259352
2.687,-0.032663397,149.6259352
2.688,-0.030428712,149.6259352
2.689,-0.024682377,149.6259352
2.69,-0.016382116,149.6259352
2.691,-0.007124132,149.6259352
2.692,0.002133852,149.6259352
2.693,0.009795631,149.6259352
2.694,0.015541966,149.6259352
2.695,0.017776652,149.6259352
2.696,0.016180447,149.6259352
2.697,0.010114872,149.6259352
2.698,0.000537648,149.6259352
2.699,-0.012870467,175.4385965
2.7,-0.029151748,175.4385965
2.701,-0.046390752,175.4385965
2.702,-0.063629756,175.4385965
2.703,-0.079591797,175.4385965
2.704,-0.092999911,175.4385965
2.705,-0.103215618,175.4385965
2.706,-0.109600434,175.4385965
2.707,-0.111515879,175.4385965
2.708,-0.109281193,175.4385965
2.709,-0.10417334,175.4385965
2.71,-0.09619232,175.4385965
2.711,-0.087253577,175.4385965
2.712,-0.078314834,175.4385965
2.713,-0.070333814,175.4385965
2.714,-0.06490672,175.4385965
2.715,-0.062352793,175.4385965
2.716,-0.063948997,175.4385965
2.717,-0.069695332,175.4385965
2.718,-0.079591797,175.4385965
2.719,-0.092999911,175.4385965
2.72,-0.108642711,175.4385965
2.721,-0.125562475,175.4385965
2.722,-0.142162997,175.4385965
2.723,-0.157167315,175.4385965
2.724,-0.169617707,175.4385965
2.725,-0.178237209,175.4385965
2.726,-0.183025821,175.4385965
2.727,-0.182706581,175.4385965
2.728,-0.178237209,175.4385965
2.729,-0.169617707,175.4385965
2.73,-0.157805797,175.4385965
2.731,-0.144397683,175.4385965
2.732,-0.130031846,175.4385965
2.733,-0.116304491,175.4385965
2.734,-0.105131062,175.4385965
2.735,-0.096830801,175.4385965
2.736,-0.09236143,175.4385965
2.737,-0.09236143,175.4385965
2.738,-0.096830801,175.4385965
2.739,-0.104811822,175.4385965
2.74,-0.115346768,175.4385965
2.741,-0.12779716,175.4385965
2.742,-0.140566793,175.4385965
2.743,-0.152059462,175.4385965
2.744,-0.161636687,175.4385965
2.745,-0.168340744,175.4385965
2.746,-0.17057543,175.4385965
2.747,-0.168979225,175.4385965
2.748,-0.16291365,175.4385965
2.749,-0.153336426,175.4385965
2.75,-0.141524515,175.4385965
2.751,-0.128116401,175.4385965
2.752,-0.114708287,175.4385965
2.753,-0.102577136,175.4385965
2.754,-0.09236143,175.4385965
2.755,-0.085657373,175.4385965
2.756,-0.083103446,175.4385965
2.757,-0.08469965,175.4385965
2.758,-0.090126744,175.4385965
2.759,-0.099703969,175.4385965
2.76,-0.11215436,175.4385965
2.761,-0.126200956,175.4385965
2.762,-0.140566793,175.4385965
2.763,-0.154294148,175.4385965
2.764,-0.165786817,175.4385965
2.765,-0.17472556,175.4385965
2.766,-0.179514172,175.4385965
2.767,-0.180152654,175.4385965
2.768,-0.176641005,175.4385965
2.769,-0.168979225,175.4385965
2.77,-0.158125038,175.4385965
2.771,-0.145355405,175.4385965
2.772,-0.131308809,175.4385965
2.773,-0.117900695,175.4385965
2.774,-0.106088785,175.4385965
2.775,-0.09651156,175.4385965
2.776,-0.089807503,175.4385965
2.777,-0.085976613,175.4385965
2.778,-0.085338132,175.4385965
2.779,-0.087572818,175.4385965
2.78,-0.091722948,175.4385965
2.781,-0.09651156,175.4385965
2.782,-0.101300173,175.4385965
2.783,-0.10417334,175.4385965
2.784,-0.104492581,175.4385965
2.785,-0.101300173,175.4385965
2.786,-0.094276875,175.4385965
2.787,-0.082464964,175.4385965
2.788,-0.066183683,175.4385965
2.789,-0.045752271,175.4385965
2.79,-0.02212845,175.4385965
2.791,0.004049296,175.4385965
2.792,0.031504007,175.4385965
2.793,0.058958717,175.4385965
2.794,0.085136464,175.4385965
2.795,0.107802561,175.4385965
2.796,0.12695701,175.4385965
2.797,0.140684365,175.4385965
2.798,0.149623108,175.4385965
2.799,0.153773239,175.4385965
2.8,0.153134757,175.4385965
2.801,0.148665386,175.4385965
2.802,0.141322847,175.4385965
2.803,0.131745623,175.4385965
2.804,0.120572194,175.4385965
2.805,0.108441043,175.4385965
2.806,0.09567141,175.4385965
2.807,0.083221019,175.4385965
2.808,0.071089868,175.4385965
2.809,0.059277958,175.4385965
2.81,0.047146807,175.4385965
2.811,0.034057933,175.4385965
2.812,0.019372856,175.4385965
2.813,0.002133852,175.4385965
2.814,-0.018297561,175.4385965
2.815,-0.042240622,175.4385965
2.816,-0.069695332,175.4385965
2.817,-0.100023209,175.4385965
2.818,-0.132905013,175.4385965
2.819,-0.16674454,175.4385965
2.82,-0.200903307,175.4385965
2.821,-0.23346587,175.4385965
2.822,-0.263155266,175.4385965
2.823,-0.288694531,175.4385965
2.824,-0.309445184,175.4385965
2.825,-0.324130262,175.4385965
2.826,-0.333069005,175.4385965
2.827,-0.335622931,175.4385965
2.828,-0.331792041,175.4385965
2.829,-0.322853298,175.4385965
2.83,-0.309445184,175.4385965
2.831,-0.293163903,175.4385965
2.832,-0.275605658,175.4385965
2.833,-0.258366654,175.4385965
2.834,-0.242404613,175.4385965
2.835,-0.228996499,175.4385965
2.836,-0.219100033,175.4385965
2.837,-0.213353699,175.4385965
2.838,-0.211757495,175.4385965
2.839,-0.21399218,175.4385965
2.84,-0.219419274,175.4385965
2.841,-0.226442572,175.4385965
2.842,-0.233785111,175.4385965
2.843,-0.240169927,175.4385965
2.844,-0.244320058,175.4385965
2.845,-0.245597021,175.4385965
2.846,-0.243043095,175.4385965
2.847,-0.236019797,175.4385965
2.848,-0.224207887,175.4385965
2.849,-0.207926605,175.4385965
2.85,-0.188452915,175.4385965
2.851,-0.16674454,175.4385965
2.852,-0.144078442,175.4385965
2.853,-0.122689307,175.4385965
2.854,-0.103534858,175.4385965
2.855,-0.087572818,175.4385965
2.856,-0.075760907,175.4385965
2.857,-0.068737609,175.4385965
2.858,-0.066502924,175.4385965
2.859,-0.069376091,175.4385965
2.86,-0.076080148,175.4385965
2.861,-0.085657373,175.4385965
2.862,-0.096830801,175.4385965
2.863,-0.10800423,175.4385965
2.864,-0.118219936,175.4385965
2.865,-0.126200956,175.4385965
2.866,-0.130989568,175.4385965
2.867,-0.131308809,175.4385965
2.868,-0.12779716,175.4385965
2.869,-0.11981614,175.4385965
2.87,-0.108961952,175.4385965
2.871,-0.095234597,175.4385965
2.872,-0.08086876,175.4385965
2.873,-0.066183683,175.4385965
2.874,-0.053094809,175.4385965
2.875,-0.042240622,175.4385965
2.876,-0.034898083,175.4385965
2.877,-0.031386434,175.4385965
2.878,-0.032024916,175.4385965
2.879,-0.036813528,175.4385965
2.88,-0.044794548,175.4385965
2.881,-0.055010254,175.4385965
2.882,-0.065864442,175.4385965
2.883,-0.077037871,175.4385965
2.884,-0.086615095,175.4385965
2.885,-0.093638393,175.4385965
2.886,-0.097788524,175.4385965
2.887,-0.097788524,175.4385965
2.888,-0.093319152,175.4385965
2.889,-0.085018891,175.4385965
2.89,-0.073206981,175.4385965
2.891,-0.059479626,175.4385965
2.892,-0.044794548,175.4385965
2.893,-0.030747952,175.4385965
2.894,-0.01797832,175.4385965
2.895,-0.008401095,175.4385965
2.896,-0.002016279,175.4385965
2.897,-0.000100834,175.4385965
2.898,-0.002974001,175.4385965
2.899,-0.009997299,175.4385965
2.9,-0.020532246,175.4385965
2.901,-0.033301879,175.4385965
2.902,-0.047348475,175.4385965
2.903,-0.06107583,175.4385965
2.904,-0.073526222,175.4385965
2.905,-0.083103446,175.4385965
2.906,-0.089169022,175.4385965
2.907,-0.090765226,175.4385965
2.908,-0.08853054,175.4385965
2.909,-0.081826483,175.4385965
2.91,-0.071291536,175.4385965
2.911,-0.057883422,175.4385965
2.912,-0.042879103,175.4385965
2.913,-0.027555544,175.4385965
2.914,-0.013189708,175.4385965
2.915,-0.001058557,175.4385965
2.916,0.007560945,175.4385965
2.917,0.012668798,175.4385965
2.918,0.01330728,175.4385965
2.919,0.010114872,175.4385965
2.92,0.003410815,175.4385965
2.921,-0.005847169,175.4385965
2.922,-0.017020597,175.4385965
2.923,-0.028194026,175.4385965
2.924,-0.038409732,175.4385965
2.925,-0.046709993,175.4385965
2.926,-0.051179365,175.4385965
2.927,-0.052137087,175.4385965
2.928,-0.048625438,175.4385965
2.929,-0.040963658,175.4385965
2.93,-0.02979023,175.4385965
2.931,-0.016382116,175.4385965
2.932,-0.001697038,175.4385965
2.933,0.012988039,175.4385965
2.934,0.026715394,175.4385965
2.935,0.038208064,175.4385965
2.936,0.046189084,175.4385965
2.937,0.050019974,175.4385965
2.938,0.050019974,175.4385965
2.939,0.046189084,175.4385965
2.94,0.038846545,175.4385965
2.941,0.029588562,175.4385965
2.942,0.018734374,175.4385965
2.943,0.008518668,175.4385965
2.944,-0.000420075,175.4385965
2.945,-0.007124132,175.4385965
2.946,-0.010635781,175.4385965
2.947,-0.009997299,175.4385965
2.948,-0.004889446,175.4385965
2.949,0.004368537,175.4385965
2.95,0.016818929,175.4385965
2.951,0.032461729,175.4385965
2.952,0.049700733,175.4385965
2.953,0.066939737,175.4385965
2.954,0.083221019,175.4385965
2.955,0.097586855,175.4385965
2.956,0.108441043,175.4385965
2.957,0.115464341,175.4385965
2.958,0.118018268,175.4385965
2.959,0.116741304,175.4385965
2.96,0.111633451,175.4385965
2.961,0.103652431,175.4385965
2.962,0.094394447,175.4385965
2.963,0.084817223,175.4385965
2.964,0.076197721,175.4385965
2.965,0.069812904,175.4385965
2.966,0.065982015,175.4385965
2.967,0.066301255,175.4385965
2.968,0.070770627,175.4385965
2.969,0.079390129,175.4385965
2.97,0.09152128,175.4385965
2.971,0.106844839,175.4385965
2.972,0.123445361,175.4385965
2.973,0.140045884,175.4385965
2.974,0.155688684,175.4385965
2.975,0.168777557,175.4385965
2.976,0.178354782,175.4385965
2.977,0.184101116,175.4385965
2.978,0.18537808,175.4385965
2.979,0.181866431,175.4385965
2.98,0.174523892,175.4385965
2.981,0.164308186,175.4385965
2.982,0.152177035,175.4385965
2.983,0.139726643,175.4385965
2.984,0.127914733,175.4385965
2.985,0.118018268,175.4385965
2.986,0.11131421,175.4385965
2.987,0.108121802,175.4385965
2.988,0.109398766,175.4385965
2.989,0.114825859,175.4385965
2.99,0.123764602,175.4385965
2.991,0.135576512,175.4385965
2.992,0.148665386,175.4385965
2.993,0.1620735,175.4385965
2.994,0.174204651,175.4385965
2.995,0.183781876,175.4385965
2.996,0.18952821,175.4385965
2.997,0.190805173,175.4385965
2.998,0.187293525,175.4385965
2.999,0.179312504,175.4385965
3,0.166862112,175.4385965
3.001,0.151219312,175.4385965
3.002,0.133661068,176.4705882
3.003,0.114825859,176.4705882
3.004,0.096629133,176.4705882
3.005,0.080028611,176.4705882
3.006,0.066620496,176.4705882
3.007,0.056724031,176.4705882
3.008,0.050977696,176.4705882
3.009,0.050019974,176.4705882
3.01,0.0525739,176.4705882
3.011,0.058958717,176.4705882
3.012,0.067258978,176.4705882
3.013,0.076516962,176.4705882
3.014,0.085774945,176.4705882
3.015,0.093436725,176.4705882
3.016,0.098544578,176.4705882
3.017,0.100460023,176.4705882
3.018,0.098544578,176.4705882
3.019,0.092798243,176.4705882
3.02,0.08354026,176.4705882
3.021,0.071409109,176.4705882
3.022,0.057362513,176.4705882
3.023,0.042996676,176.4705882
3.024,0.02895008,176.4705882
3.025,0.016499688,176.4705882
3.026,0.006283982,176.4705882
3.027,-0.000100834,176.4705882
3.028,-0.003293242,176.4705882
3.029,-0.002654761,176.4705882
3.03,0.001176129,176.4705882
3.031,0.007560945,176.4705882
3.032,0.016499688,176.4705882
3.033,0.025757672,176.4705882
3.034,0.034057933,176.4705882
3.035,0.040442749,176.4705882
3.036,0.043635158,176.4705882
3.037,0.042677435,176.4705882
3.038,0.037888823,176.4705882
3.039,0.029269321,176.4705882
3.04,0.01713817,176.4705882
3.041,0.003091574,176.4705882
3.042,-0.012870467,176.4705882
3.043,-0.029151748,176.4705882
3.044,-0.044156067,176.4705882
3.045,-0.05724494,176.4705882
3.046,-0.066822165,176.4705882
3.047,-0.07288774,176.4705882
3.048,-0.074164703,176.4705882
3.049,-0.070972295,176.4705882
3.05,-0.063629756,176.4705882
3.051,-0.053094809,176.4705882
3.052,-0.040644418,176.4705882
3.053,-0.027874785,176.4705882
3.054,-0.015743634,176.4705882
3.055,-0.005847169,176.4705882
3.056,0.000856888,176.4705882
3.057,0.004049296,176.4705882
3.058,0.002772333,176.4705882
3.059,-0.002654761,176.4705882
3.06,-0.011912744,176.4705882
3.061,-0.024043895,176.4705882
3.062,-0.038409732,176.4705882
3.063,-0.05341405,176.4705882
3.064,-0.067779887,176.4705882
3.065,-0.08054952,176.4705882
3.066,-0.090126744,176.4705882
3.067,-0.09619232,176.4705882
3.068,-0.097469283,176.4705882
3.069,-0.094276875,176.4705882
3.07,-0.086615095,176.4705882
3.071,-0.075760907,176.4705882
3.072,-0.062352793,176.4705882
3.073,-0.048306197,176.4705882
3.074,-0.034578842,176.4705882
3.075,-0.022447691,176.4705882
3.076,-0.012870467,176.4705882
3.077,-0.006804891,176.4705882
3.078,-0.004570206,176.4705882
3.079,-0.00616641,176.4705882
3.08,-0.011912744,176.4705882
3.081,-0.020532246,176.4705882
3.082,-0.031067193,176.4705882
3.083,-0.042879103,176.4705882
3.084,-0.054052532,176.4705882
3.085,-0.063629756,176.4705882
3.086,-0.070333814,176.4705882
3.087,-0.073206981,176.4705882
3.088,-0.071930018,176.4705882
3.089,-0.066183683,176.4705882
3.09,-0.056606458,176.4705882
3.091,-0.043517585,176.4705882
3.092,-0.028194026,176.4705882
3.093,-0.012231985,176.4705882
3.094,0.003730056,176.4705882
3.095,0.017457411,176.4705882
3.096,0.029269321,176.4705882
3.097,0.037888823,176.4705882
3.098,0.042358194,176.4705882
3.099,0.042677435,176.4705882
3.1,0.039485027,176.4705882
3.101,0.03278097,176.4705882
3.102,0.023842227,176.4705882
3.103,0.014265003,176.4705882
3.104,0.00532626,176.4705882
3.105,-0.00233552,176.4705882
3.106,-0.007124132,176.4705882
3.107,-0.008401095,176.4705882
3.108,-0.005527928,176.4705882
3.109,0.001814611,176.4705882
3.11,0.012668798,176.4705882
3.111,0.027034635,176.4705882
3.112,0.043954398,176.4705882
3.113,0.061831884,176.4705882
3.114,0.079390129,176.4705882
3.115,0.09567141,176.4705882
3.116,0.109079525,176.4705882
3.117,0.11897599,176.4705882
3.118,0.124403084,176.4705882
3.119,0.125680047,176.4705882
3.12,0.122487639,176.4705882
3.121,0.115783582,176.4705882
3.122,0.10716408,176.4705882
3.123,0.096948374,176.4705882
3.124,0.086732668,176.4705882
3.125,0.078113166,176.4705882
3.126,0.071728349,176.4705882
3.127,0.06789746,176.4705882
3.128,0.06789746,176.4705882
3.129,0.071728349,176.4705882
3.13,0.079070888,176.4705882
3.131,0.089286594,176.4705882
3.132,0.101417745,176.4705882
3.133,0.114506619,176.4705882
3.134,0.127276251,176.4705882
3.135,0.138130439,176.4705882
3.136,0.146111459,176.4705882
3.137,0.15026159,176.4705882
3.138,0.149942349,176.4705882
3.139,0.144834496,176.4705882
3.14,0.134938031,176.4705882
3.141,0.121210676,176.4705882
3.142,0.104929394,176.4705882
3.143,0.087051908,176.4705882
3.144,0.069493664,176.4705882
3.145,0.053212382,176.4705882
3.146,0.039485027,176.4705882
3.147,0.02895008,176.4705882
3.148,0.022246023,176.4705882
3.149,0.019692096,176.4705882
3.15,0.02096906,176.4705882
3.151,0.025438431,176.4705882
3.152,0.032142488,176.4705882
3.153,0.040123509,176.4705882
3.154,0.047785288,176.4705882
3.155,0.054489345,176.4705882
3.156,0.058958717,176.4705882
3.157,0.059916439,176.4705882
3.158,0.057362513,176.4705882
3.159,0.050019974,176.4705882
3.16,0.039165786,176.4705882
3.161,0.024480709,176.4705882
3.162,0.007560945,176.4705882
3.163,-0.01031654,176.4705882
3.164,-0.028194026,176.4705882
3.165,-0.045113789,176.4705882
3.166,-0.059479626,176.4705882
3.167,-0.070653054,176.4705882
3.168,-0.077995593,176.4705882
3.169,-0.08054952,176.4705882
3.17,-0.078634075,176.4705882
3.171,-0.073206981,176.4705882
3.172,-0.06490672,176.4705882
3.173,-0.055329495,176.4705882
3.174,-0.04543303,176.4705882
3.175,-0.036494287,176.4705882
3.176,-0.030109471,176.4705882
3.177,-0.027236303,176.4705882
3.178,-0.028194026,176.4705882
3.179,-0.03362112,176.4705882
3.18,-0.042879103,176.4705882
3.181,-0.055648736,176.4705882
3.182,-0.070653054,176.4705882
3.183,-0.086615095,176.4705882
3.184,-0.102257895,176.4705882
3.185,-0.116623732,176.4705882
3.186,-0.128435642,176.4705882
3.187,-0.137055144,176.4705882
3.188,-0.141205275,176.4705882
3.189,-0.141205275,176.4705882
3.19,-0.136416662,176.4705882
3.191,-0.127477919,176.4705882
3.192,-0.115666009,176.4705882
3.193,-0.101938654,176.4705882
3.194,-0.087572818,176.4705882
3.195,-0.074483944,176.4705882
3.196,-0.063310516,176.4705882
3.197,-0.055329495,176.4705882
3.198,-0.051179365,176.4705882
3.199,-0.051179365,176.4705882
3.2,-0.055329495,176.4705882
3.201,-0.063310516,176.4705882
3.202,-0.074164703,176.4705882
3.203,-0.086934336,176.4705882
3.204,-0.100023209,176.4705882
3.205,-0.112792842,176.4705882
3.206,-0.12364703,176.4705882
3.207,-0.13162805,176.4705882
3.208,-0.13545894,176.4705882
3.209,-0.135139699,176.4705882
3.21,-0.130670328,176.4705882
3.211,-0.122689307,176.4705882
3.212,-0.111515879,176.4705882
3.213,-0.099065487,176.4705882
3.214,-0.085657373,176.4705882
3.215,-0.073206981,176.4705882
3.216,-0.062991275,176.4705882
3.217,-0.055329495,176.4705882
3.218,-0.051498605,176.4705882
3.219,-0.051817846,176.4705882
3.22,-0.055967977,176.4705882
3.221,-0.063948997,176.4705882
3.222,-0.074803185,176.4705882
3.223,-0.087253577,176.4705882
3.224,-0.100661691,176.4705882
3.225,-0.113431324,176.4705882
3.226,-0.124923993,176.4705882
3.227,-0.133224254,176.4705882
3.228,-0.138332107,176.4705882
3.229,-0.13928983,176.4705882
3.23,-0.136097421,176.4705882
3.231,-0.129074124,176.4705882
3.232,-0.118858417,176.4705882
3.233,-0.106727266,176.4705882
3.234,-0.092999911,176.4705882
3.235,-0.079591797,176.4705882
3.236,-0.067141405,176.4705882
3.237,-0.056606458,176.4705882
3.238,-0.049583161,176.4705882
3.239,-0.045752271,176.4705882
3.24,-0.045113789,176.4705882
3.241,-0.046709993,176.4705882
3.242,-0.050221642,176.4705882
3.243,-0.054052532,176.4705882
3.244,-0.05724494,176.4705882
3.245,-0.058841144,176.4705882
3.246,-0.057564181,176.4705882
3.247,-0.052137087,176.4705882
3.248,-0.042240622,176.4705882
3.249,-0.027236303,176.4705882
3.25,-0.007124132,176.4705882
3.251,0.018095892,176.4705882
3.252,0.047785288,176.4705882
3.253,0.080667092,176.4705882
3.254,0.114506619,176.4705882
3.255,0.148346145,176.4705882
3.256,0.180270227,176.4705882
3.257,0.2090019,176.4705882
3.258,0.23262572,176.4705882
3.259,0.250183965,176.4705882
3.26,0.261038153,176.4705882
3.261,0.264869043,176.4705882
3.262,0.262315116,176.4705882
3.263,0.253695614,176.4705882
3.264,0.2402875,176.4705882
3.265,0.222729255,176.4705882
3.266,0.202617084,176.4705882
3.267,0.180589467,176.4705882
3.268,0.15824261,176.4705882
3.269,0.136214994,176.4705882
3.27,0.114506619,176.4705882
3.271,0.093436725,176.4705882
3.272,0.072686072,176.4705882
3.273,0.051935419,176.4705882
3.274,0.030865525,176.4705882
3.275,0.008837909,176.4705882
3.276,-0.013828189,176.4705882
3.277,-0.038409732,176.4705882
3.278,-0.063948997,176.4705882
3.279,-0.091084467,176.4705882
3.28,-0.118858417,176.4705882
3.281,-0.147590091,176.4705882
3.282,-0.176321764,176.4705882
3.283,-0.204414956,176.4705882
3.284,-0.230592703,176.4705882
3.285,-0.253258801,176.4705882
3.286,-0.27241325,176.4705882
3.287,-0.286459846,176.4705882
3.288,-0.295398588,176.4705882
3.289,-0.298910237,176.4705882
3.29,-0.296994792,176.4705882
3.291,-0.290290735,176.4705882
3.292,-0.279436548,176.4705882
3.293,-0.265389952,176.4705882
3.294,-0.250066393,176.4705882
3.295,-0.234742833,176.4705882
3.296,-0.220696238,176.4705882
3.297,-0.208565087,176.4705882
3.298,-0.199945585,176.4705882
3.299,-0.195156972,176.4705882
3.3,-0.193560768,176.4705882
3.301,-0.195476213,176.4705882
3.302,-0.199626344,176.4705882
3.303,-0.205372678,176.4705882
3.304,-0.211119013,176.4705882
3.305,-0.215588385,176.4705882
3.306,-0.218142311,176.4705882
3.307,-0.216865348,176.4705882
3.308,-0.212076736,176.4705882
3.309,-0.202818752,176.4705882
3.31,-0.189729878,176.4705882
3.311,-0.172810115,176.4705882
3.312,-0.153336426,176.4705882
3.313,-0.131947291,176.4705882
3.314,-0.110558156,176.4705882
3.315,-0.090445985,176.4705882
3.316,-0.073206981,176.4705882
3.317,-0.059479626,176.4705882
3.318,-0.050860124,176.4705882
3.319,-0.046709993,176.4705882
3.32,-0.047986956,176.4705882
3.321,-0.05341405,176.4705882
3.322,-0.062352793,176.4705882
3.323,-0.074164703,176.4705882
3.324,-0.086934336,176.4705882
3.325,-0.099384728,176.4705882
3.326,-0.110558156,176.4705882
3.327,-0.119177658,176.4705882
3.328,-0.123966271,176.4705882
3.329,-0.124604752,176.4705882
3.33,-0.120454622,176.4705882
3.331,-0.11183512,176.4705882
3.332,-0.099384728,176.4705882
3.333,-0.084380409,176.4705882
3.334,-0.067779887,176.4705882
3.335,-0.051498605,176.4705882
3.336,-0.036813528,176.4705882
3.337,-0.025001618,176.4705882
3.338,-0.017339838,176.4705882
3.339,-0.01414743,176.4705882
3.34,-0.016062875,176.4705882
3.341,-0.022447691,176.4705882
3.342,-0.032663397,176.4705882
3.343,-0.045113789,176.4705882
3.344,-0.058841144,176.4705882
3.345,-0.072249258,176.4705882
3.346,-0.084380409,176.4705882
3.347,-0.093638393,176.4705882
3.348,-0.099384728,176.4705882
3.349,-0.100980932,176.4705882
3.35,-0.098427005,176.4705882
3.351,-0.091722948,176.4705882
3.352,-0.081826483,176.4705882
3.353,-0.068737609,176.4705882
3.354,-0.054371773,176.4705882
3.355,-0.039686695,176.4705882
3.356,-0.026278581,176.4705882
3.357,-0.015424393,176.4705882
3.358,-0.008081855,176.4705882
3.359,-0.004570206,176.4705882
3.36,-0.005527928,176.4705882
3.361,-0.01031654,176.4705882
3.362,-0.018616801,176.4705882
3.363,-0.02979023,176.4705882
3.364,-0.042240622,176.4705882
3.365,-0.055329495,176.4705882
3.366,-0.066822165,176.4705882
3.367,-0.076399389,176.4705882
3.368,-0.082464964,176.4705882
3.369,-0.08469965,176.4705882
3.37,-0.082464964,176.4705882
3.371,-0.075760907,176.4705882
3.372,-0.065864442,176.4705882
3.373,-0.052775569,176.4705882
3.374,-0.038409732,176.4705882
3.375,-0.024043895,176.4705882
3.376,-0.010955022,176.4705882
3.377,-0.000100834,176.4705882
3.378,0.007560945,176.4705882
3.379,0.011391835,176.4705882
3.38,0.011391835,176.4705882
3.381,0.007241705,176.4705882
3.382,-0.000100834,176.4705882
3.383,-0.010635781,176.4705882
3.384,-0.022447691,176.4705882
3.385,-0.034259601,176.4705882
3.386,-0.044794548,176.4705882
3.387,-0.053094809,176.4705882
3.388,-0.058202663,176.4705882
3.389,-0.059479626,176.4705882
3.39,-0.056287218,176.4705882
3.391,-0.04926392,176.4705882
3.392,-0.038728973,176.4705882
3.393,-0.025320859,176.4705882
3.394,-0.010635781,176.4705882
3.395,0.004368537,176.4705882
3.396,0.017776652,176.4705882
3.397,0.029269321,176.4705882
3.398,0.037569582,176.4705882
3.399,0.042358194,176.4705882
3.4,0.043315917,176.4705882
3.401,0.04076199,176.4705882
3.402,0.034696415,176.4705882
3.403,0.026396154,176.4705882
3.404,0.01713817,176.4705882
3.405,0.007880186,176.4705882
3.406,-0.000100834,176.4705882
3.407,-0.005847169,176.4705882
3.408,-0.008401095,176.4705882
3.409,-0.007124132,176.4705882
3.41,-0.001697038,176.4705882
3.411,0.007241705,176.4705882
3.412,0.020330578,176.4705882
3.413,0.035654137,176.4705882
3.414,0.0525739,176.4705882
3.415,0.069812904,176.4705882
3.416,0.085774945,176.4705882
3.417,0.099183059,176.4705882
3.418,0.109079525,176.4705882
3.419,0.114506619,176.4705882
3.42,0.115464341,176.4705882
3.421,0.112271933,176.4705882
3.422,0.105567876,176.4705882
3.423,0.095990651,176.4705882
3.424,0.085455704,176.4705882
3.425,0.074282276,176.4705882
3.426,0.064705051,176.4705882
3.427,0.057043272,176.4705882
3.428,0.052893141,176.4705882
3.429,0.0525739,176.4705882
3.43,0.056724031,176.4705882
3.431,0.065024292,176.4705882
3.432,0.077155443,176.4705882
3.433,0.091840521,176.4705882
3.434,0.107802561,176.4705882
3.435,0.123764602,176.4705882
3.436,0.13844968,176.4705882
3.437,0.150900072,176.4705882
3.438,0.159838814,176.4705882
3.439,0.164946667,176.4705882
3.44,0.165265908,176.4705882
3.441,0.161115778,176.4705882
3.442,0.153134757,176.4705882
3.443,0.141961329,176.4705882
3.444,0.128553214,176.4705882
3.445,0.114506619,176.4705882
3.446,0.101098504,176.4705882
3.447,0.089286594,176.4705882
3.448,0.080667092,176.4705882
3.449,0.075559239,176.4705882
3.45,0.074601517,176.4705882
3.451,0.078113166,176.4705882
3.452,0.085136464,176.4705882
3.453,0.095032929,176.4705882
3.454,0.106525598,176.4705882
3.455,0.118337508,176.4705882
3.456,0.128872455,176.4705882
3.457,0.137811198,176.4705882
3.458,0.143238292,176.4705882
3.459,0.145153737,176.4705882
3.46,0.14259981,176.4705882
3.461,0.135895753,176.4705882
3.462,0.125680047,176.4705882
3.463,0.112271933,176.4705882
3.464,0.096948374,176.4705882
3.465,0.081305574,176.4705882
3.466,0.066620496,176.4705882
3.467,0.053850864,175.9530792
3.468,0.044273639,175.9530792
3.469,0.038527305,175.9530792
3.47,0.0369311,175.9530792
3.471,0.039485027,175.9530792
3.472,0.045550602,175.9530792
3.473,0.054489345,175.9530792
3.474,0.065024292,175.9530792
3.475,0.076197721,175.9530792
3.476,0.086094186,175.9530792
3.477,0.093755966,175.9530792
3.478,0.098225337,175.9530792
3.479,0.098863819,175.9530792
3.48,0.094713688,175.9530792
3.481,0.086094186,175.9530792
3.482,0.073963035,175.9530792
3.483,0.058958717,175.9530792
3.484,0.042038954,175.9530792
3.485,0.02511919,175.9530792
3.486,0.008837909,175.9530792
3.487,-0.004889446,175.9530792
3.488,-0.016062875,175.9530792
3.489,-0.023405414,175.9530792
3.49,-0.026278581,175.9530792
3.491,-0.024363136,175.9530792
3.492,-0.018616801,175.9530792
3.493,-0.009358818,175.9530792
3.494,0.002133852,175.9530792
3.495,0.014584243,175.9530792
3.496,0.026715394,175.9530792
3.497,0.037250341,175.9530792
3.498,0.044912121,175.9530792
3.499,0.048743011,175.9530792
3.5,0.04842377,175.9530792
3.501,0.043635158,175.9530792
3.502,0.034696415,175.9530792
3.503,0.022246023,175.9530792
3.504,0.008199427,175.9530792
3.505,-0.00648565,175.9530792
3.506,-0.021170728,175.9530792
3.507,-0.033940361,175.9530792
3.508,-0.043836826,175.9530792
3.509,-0.050540883,175.9530792
3.51,-0.052775569,175.9530792
3.511,-0.050860124,175.9530792
3.512,-0.044794548,175.9530792
3.513,-0.035217324,175.9530792
3.514,-0.023724654,175.9530792
3.515,-0.011274263,175.9530792
3.516,0.000537648,175.9530792
3.517,0.010434113,175.9530792
3.518,0.018095892,175.9530792
3.519,0.021926782,175.9530792
3.52,0.021607541,175.9530792
3.521,0.017457411,175.9530792
3.522,0.00947639,175.9530792
3.523,-0.001058557,175.9530792
3.524,-0.01414743,175.9530792
3.525,-0.027555544,175.9530792
3.526,-0.040644418,175.9530792
3.527,-0.051817846,175.9530792
3.528,-0.060437348,175.9530792
3.529,-0.06490672,175.9530792
3.53,-0.065545201,175.9530792
3.531,-0.061714311,175.9530792
3.532,-0.054052532,175.9530792
3.533,-0.043198344,175.9530792
3.534,-0.030109471,175.9530792
3.535,-0.015743634,175.9530792
3.536,-0.00233552,175.9530792
3.537,0.00947639,175.9530792
3.538,0.018415133,175.9530792
3.539,0.023842227,175.9530792
3.54,0.024799949,175.9530792
3.541,0.021607541,175.9530792
3.542,0.014584243,175.9530792
3.543,0.005007019,175.9530792
3.544,-0.006804891,175.9530792
3.545,-0.019893765,175.9530792
3.546,-0.032344156,175.9530792
3.547,-0.042879103,175.9530792
3.548,-0.050860124,175.9530792
3.549,-0.054691014,175.9530792
3.55,-0.054371773,175.9530792
3.551,-0.04926392,175.9530792
3.552,-0.040005936,175.9530792
3.553,-0.027236303,175.9530792
3.554,-0.011912744,175.9530792
3.555,0.004687778,175.9530792
3.556,0.02096906,175.9530792
3.557,0.036292619,175.9530792
3.558,0.048743011,175.9530792
3.559,0.057681753,175.9530792
3.56,0.062470366,175.9530792
3.561,0.062789607,175.9530792
3.562,0.059277958,175.9530792
3.563,0.05225466,175.9530792
3.564,0.043315917,175.9530792
3.565,0.033419451,175.9530792
3.566,0.023522986,175.9530792
3.567,0.015541966,175.9530792
3.568,0.009795631,175.9530792
3.569,0.007241705,175.9530792
3.57,0.00915715,175.9530792
3.571,0.014903484,175.9530792
3.572,0.02511919,175.9530792
3.573,0.039165786,175.9530792
3.574,0.055447068,175.9530792
3.575,0.073005313,175.9530792
3.576,0.090244317,175.9530792
3.577,0.106206357,175.9530792
3.578,0.119614472,175.9530792
3.579,0.129830178,175.9530792
3.58,0.135576512,175.9530792
3.581,0.137491957,175.9530792
3.582,0.135257272,175.9530792
3.583,0.129510937,175.9530792
3.584,0.121210676,175.9530792
3.585,0.111633451,175.9530792
3.586,0.101417745,175.9530792
3.587,0.092159762,175.9530792
3.588,0.084497982,175.9530792
3.589,0.079390129,175.9530792
3.59,0.078113166,175.9530792
3.591,0.080028611,175.9530792
3.592,0.085774945,175.9530792
3.593,0.094075206,175.9530792
3.594,0.104290913,175.9530792
3.595,0.114825859,175.9530792
3.596,0.124722325,175.9530792
3.597,0.132384104,175.9530792
3.598,0.137172716,175.9530792
3.599,0.137811198,175.9530792
3.6,0.133980308,175.9530792
3.601,0.125999288,175.9530792
3.602,0.114187378,175.9530792
3.603,0.099183059,175.9530792
3.604,0.081624815,175.9530792
3.605,0.063108847,175.9530792
3.606,0.044912121,175.9530792
3.607,0.027992358,175.9530792
3.608,0.013945762,175.9530792
3.609,0.003410815,175.9530792
3.61,-0.003293242,175.9530792
3.611,-0.005527928,175.9530792
3.612,-0.003612483,175.9530792
3.613,0.001814611,175.9530792
3.614,0.00947639,175.9530792
3.615,0.018415133,175.9530792
3.616,0.027353876,175.9530792
3.617,0.034696415,175.9530792
3.618,0.039485027,175.9530792
3.619,0.041081231,175.9530792
3.62,0.038527305,175.9530792
3.621,0.031504007,175.9530792
3.622,0.020330578,175.9530792
3.623,0.005964741,175.9530792
3.624,-0.011274263,175.9530792
3.625,-0.030109471,175.9530792
3.626,-0.048944679,175.9530792
3.627,-0.066502924,175.9530792
3.628,-0.081826483,175.9530792
3.629,-0.093638393,175.9530792
3.63,-0.101619413,175.9530792
3.631,-0.105131062,175.9530792
3.632,-0.104492581,175.9530792
3.633,-0.099703969,175.9530792
3.634,-0.092042189,175.9530792
3.635,-0.082464964,175.9530792
3.636,-0.072249258,175.9530792
3.637,-0.062991275,175.9530792
3.638,-0.056287218,175.9530792
3.639,-0.052456328,175.9530792
3.64,-0.052456328,175.9530792
3.641,-0.056287218,175.9530792
3.642,-0.063948997,175.9530792
3.643,-0.074803185,175.9530792
3.644,-0.087572818,175.9530792
3.645,-0.101938654,175.9530792
3.646,-0.11598525,175.9530792
3.647,-0.128754883,175.9530792
3.648,-0.13928983,175.9530792
3.649,-0.146951609,175.9530792
3.65,-0.150463258,175.9530792
3.651,-0.149505536,175.9530792
3.652,-0.144716924,175.9530792
3.653,-0.136416662,175.9530792
3.654,-0.125243234,175.9530792
3.655,-0.112473601,175.9530792
3.656,-0.099384728,175.9530792
3.657,-0.087572818,175.9530792
3.658,-0.077995593,175.9530792
3.659,-0.071610777,175.9530792
3.66,-0.069376091,175.9530792
3.661,-0.070972295,175.9530792
3.662,-0.077037871,175.9530792
3.663,-0.086615095,175.9530792
3.664,-0.098427005,175.9530792
3.665,-0.11183512,175.9530792
3.666,-0.125243234,175.9530792
3.667,-0.137693626,175.9530792
3.668,-0.147909332,175.9530792
3.669,-0.154613389,175.9530792
3.67,-0.157486556,175.9530792
3.671,-0.156209593,175.9530792
3.672,-0.150782499,175.9530792
3.673,-0.141843756,175.9530792
3.674,-0.130031846,175.9530792
3.675,-0.117262213,175.9530792
3.676,-0.10417334,175.9530792
3.677,-0.09236143,175.9530792
3.678,-0.082784205,175.9530792
3.679,-0.076399389,175.9530792
3.68,-0.073845462,175.9530792
3.681,-0.076080148,174.9271137
3.682,-0.082784205,174.9271137
3.683,-0.093319152,174.9271137
3.684,-0.107046507,174.9271137
3.685,-0.122370066,174.9271137
3.686,-0.138012866,174.9271137
3.687,-0.152697944,174.9271137
3.688,-0.165148336,174.9271137
3.689,-0.174406319,174.9271137
3.69,-0.179514172,174.9271137
3.691,-0.179194932,174.9271137
3.692,-0.173767838,174.9271137
3.693,-0.163232891,174.9271137
3.694,-0.148547813,174.9271137
3.695,-0.130351087,174.9271137
3.696,-0.110238915,174.9271137
3.697,-0.090126744,174.9271137
3.698,-0.070653054,174.9271137
3.699,-0.053094809,174.9271137
3.7,-0.038728973,174.9271137
3.701,-0.027555544,174.9271137
3.702,-0.019574524,174.9271137
3.703,-0.014466671,174.9271137
3.704,-0.011274263,174.9271137
3.705,-0.009039577,174.9271137
3.706,-0.005847169,174.9271137
3.707,-0.001058557,174.9271137
3.708,0.006283982,174.9271137
3.709,0.018095892,174.9271137
3.71,0.033738692,174.9271137
3.711,0.054170104,174.9271137
3.712,0.078432406,174.9271137
3.713,0.105887117,174.9271137
3.714,0.135895753,174.9271137
3.715,0.166542872,174.9271137
3.716,0.196232267,174.9271137
3.717,0.222729255,174.9271137
3.718,0.244756871,174.9271137
3.719,0.25976119,174.9271137
3.72,0.266784488,174.9271137
3.721,0.264869043,174.9271137
3.722,0.254334096,174.9271137
3.723,0.234860406,174.9271137
3.724,0.208363418,174.9271137
3.725,0.175800855,174.9271137
3.726,0.13844968,174.9271137
3.727,0.098225337,174.9271137
3.728,0.05640479,174.9271137
3.729,0.014903484,174.9271137
3.73,-0.024682377,174.9271137
3.731,-0.061395071,174.9271137
3.732,-0.094276875,174.9271137
3.733,-0.122370066,174.9271137
3.734,-0.145993887,174.9271137
3.735,-0.165148336,174.9271137
3.736,-0.181110376,174.9271137
3.737,-0.194518491,174.9271137
3.738,-0.206649642,174.9271137
3.739,-0.218142311,174.9271137
3.74,-0.230592703,174.9271137
3.741,-0.244320058,174.9271137
3.742,-0.259324376,174.9271137
3.743,-0.275605658,174.9271137
3.744,-0.292844662,174.9271137
3.745,-0.310083666,174.9271137
3.746,-0.326684188,174.9271137
3.747,-0.341050025,174.9271137
3.748,-0.352861935,174.9271137
3.749,-0.360523715,174.9271137
3.75,-0.364035364,174.9271137
3.751,-0.3627584,174.9271137
3.752,-0.356373584,174.9271137
3.753,-0.345519396,174.9271137
3.754,-0.330834319,174.9271137
3.755,-0.313276074,174.9271137
3.756,-0.294760107,174.9271137
3.757,-0.276244139,174.9271137
3.758,-0.259005135,174.9271137
3.759,-0.244639299,174.9271137
3.76,-0.23346587,174.9271137
3.761,-0.225804091,174.9271137
3.762,-0.222292442,174.9271137
3.763,-0.221973201,174.9271137
3.764,-0.224527127,174.9271137
3.765,-0.22931574,174.9271137
3.766,-0.235062074,174.9271137
3.767,-0.240489168,174.9271137
3.768,-0.244320058,174.9271137
3.769,-0.245916262,174.9271137
3.77,-0.244320058,174.9271137
3.771,-0.238573723,174.9271137
3.772,-0.22931574,174.9271137
3.773,-0.216226866,174.9271137
3.774,-0.200584066,174.9271137
3.775,-0.183345062,174.9271137
3.776,-0.165467577,174.9271137
3.777,-0.148547813,174.9271137
3.778,-0.133862736,174.9271137
3.779,-0.122370066,174.9271137
3.78,-0.115027528,174.9271137
3.781,-0.112473601,174.9271137
3.782,-0.114069805,174.9271137
3.783,-0.11981614,174.9271137
3.784,-0.129074124,174.9271137
3.785,-0.140566793,174.9271137
3.786,-0.153017185,174.9271137
3.787,-0.165467577,174.9271137
3.788,-0.176321764,174.9271137
3.789,-0.184622025,174.9271137
3.79,-0.189410638,174.9271137
3.791,-0.19036836,174.9271137
3.792,-0.186856711,174.9271137
3.793,-0.179514172,174.9271137
3.794,-0.168659985,174.9271137
3.795,-0.155571111,174.9271137
3.796,-0.141843756,174.9271137
3.797,-0.128435642,174.9271137
3.798,-0.116623732,174.9271137
3.799,-0.107365748,174.9271137
3.8,-0.101938654,174.9271137
3.801,-0.100661691,174.9271137
3.802,-0.103854099,174.9271137
3.803,-0.110877397,174.9271137
3.804,-0.121412344,174.9271137
3.805,-0.134181977,174.9271137
3.806,-0.148228572,174.9271137
3.807,-0.161317446,174.9271137
3.808,-0.173129356,174.9271137
3.809,-0.182068099,174.9271137
3.81,-0.187175952,174.9271137
3.811,-0.188452915,174.9271137
3.812,-0.185260507,174.9271137
3.813,-0.177917968,174.9271137
3.814,-0.167383021,174.9271137
3.815,-0.153974907,174.9271137
3.816,-0.13960907,174.9271137
3.817,-0.124923993,174.9271137
3.818,-0.11183512,174.9271137
3.819,-0.101300173,174.9271137
3.82,-0.093957634,174.9271137
3.821,-0.091084467,174.9271137
3.822,-0.09236143,174.9271137
3.823,-0.097469283,174.9271137
3.824,-0.106408026,174.9271137
3.825,-0.117581454,174.9271137
3.826,-0.130031846,174.9271137
3.827,-0.142482238,174.9271137
3.828,-0.153974907,174.9271137
3.829,-0.163232891,174.9271137
3.83,-0.169298466,174.9271137
3.831,-0.171533152,174.9271137
3.832,-0.169298466,174.9271137
3.833,-0.16291365,174.9271137
3.834,-0.153017185,174.9271137
3.835,-0.140247552,174.9271137
3.836,-0.126520197,174.9271137
3.837,-0.112473601,174.9271137
3.838,-0.100023209,174.9271137
3.839,-0.089488262,174.9271137
3.84,-0.082464964,174.9271137
3.841,-0.078953316,174.9271137
3.842,-0.079591797,174.9271137
3.843,-0.084061169,174.9271137
3.844,-0.092042189,174.9271137
3.845,-0.101938654,174.9271137
3.846,-0.113112083,174.9271137
3.847,-0.12364703,174.9271137
3.848,-0.133224254,174.9271137
3.849,-0.140247552,174.9271137
3.85,-0.143759201,174.9271137
3.851,-0.14343996,174.9271137
3.852,-0.138970589,174.9271137
3.853,-0.130351087,174.9271137
3.854,-0.118539177,174.9271137
3.855,-0.10417334,174.9271137
3.856,-0.088849781,174.9271137
3.857,-0.073206981,174.9271137
3.858,-0.058841144,174.9271137
3.859,-0.047029234,174.9271137
3.86,-0.038728973,174.9271137
3.861,-0.034578842,174.9271137
3.862,-0.034578842,174.9271137
3.863,-0.038409732,174.9271137
3.864,-0.045752271,174.9271137
3.865,-0.055648736,174.9271137
3.866,-0.066822165,174.9271137
3.867,-0.077995593,174.9271137
3.868,-0.087892058,174.9271137
3.869,-0.095553838,174.9271137
3.87,-0.099703969,174.9271137
3.871,-0.099703969,174.9271137
3.872,-0.095553838,174.9271137
3.873,-0.087253577,174.9271137
3.874,-0.075441667,174.9271137
3.875,-0.060437348,174.9271137
3.876,-0.044156067,174.9271137
3.877,-0.027555544,174.9271137
3.878,-0.012231985,174.9271137
3.879,0.001176129,174.9271137
3.88,0.010753354,174.9271137
3.881,0.016818929,174.9271137
3.882,0.018415133,174.9271137
3.883,0.015861207,174.9271137
3.884,0.010114872,174.9271137
3.885,0.00149537,174.9271137
3.886,-0.008401095,174.9271137
3.887,-0.018936042,174.9271137
3.888,-0.028194026,174.9271137
3.889,-0.035536565,174.9271137
3.89,-0.039367454,174.9271137
3.891,-0.039686695,174.9271137
3.892,-0.035217324,174.9271137
3.893,-0.027236303,174.9271137
3.894,-0.015743634,174.9271137
3.895,-0.001697038,174.9271137
3.896,0.012668798,174.9271137
3.897,0.027034635,174.9271137
3.898,0.039485027,174.9271137
3.899,0.049381492,174.9271137
3.9,0.055447068,174.9271137
3.901,0.057362513,174.9271137
3.902,0.054489345,174.9271137
3.903,0.047466047,174.9271137
3.904,0.035973378,174.9271137
3.905,0.021607541,174.9271137
3.906,0.005645501,174.9271137
3.907,-0.011593503,174.9271137
3.908,-0.027874785,174.9271137
3.909,-0.042240622,174.9271137
3.91,-0.053733291,174.9271137
3.911,-0.06107583,174.9271137
3.912,-0.063948997,174.9271137
3.913,-0.062672034,174.9271137
3.914,-0.057564181,174.9271137
3.915,-0.048944679,174.9271137
3.916,-0.038728973,174.9271137
3.917,-0.028194026,174.9271137
3.918,-0.018297561,174.9271137
3.919,-0.010635781,174.9271137
3.92,-0.00648565,174.9271137
3.921,-0.005847169,174.9271137
3.922,-0.009997299,174.9271137
3.923,-0.01797832,174.9271137
3.924,-0.030109471,174.9271137
3.925,-0.04543303,174.9271137
3.926,-0.062352793,174.9271137
3.927,-0.079591797,174.9271137
3.928,-0.09619232,174.9271137
3.929,-0.110877397,174.9271137
3.93,-0.122370066,174.9271137
3.931,-0.130351087,174.9271137
3.932,-0.134181977,174.9271137
3.933,-0.133862736,174.9271137
3.934,-0.129393364,174.9271137
3.935,-0.122050826,174.9271137
3.936,-0.113112083,174.9271137
3.937,-0.103534858,174.9271137
3.938,-0.094596115,174.9271137
3.939,-0.087572818,174.9271137
3.94,-0.083422687,174.9271137
3.941,-0.082784205,174.9271137
3.942,-0.086615095,174.9271137
3.943,-0.094276875,174.9271137
3.944,-0.105769544,174.9271137
3.945,-0.120135381,174.9271137
3.946,-0.136416662,174.9271137
3.947,-0.153017185,174.9271137
3.948,-0.168979225,174.9271137
3.949,-0.183345062,174.9271137
3.95,-0.194518491,174.9271137
3.951,-0.201861029,174.9271137
3.952,-0.205053438,174.9271137
3.953,-0.203776474,174.9271137
3.954,-0.19834938,174.9271137
3.955,-0.190049119,174.9271137
3.956,-0.179833413,174.9271137
3.957,-0.168979225,174.9271137
3.958,-0.158763519,174.9271137
3.959,-0.150463258,174.9271137
3.96,-0.144716924,174.9271137
3.961,-0.143120719,174.9271137
3.962,-0.145355405,174.9271137
3.963,-0.151740221,174.9271137
3.964,-0.161955928,174.9271137
3.965,-0.17472556,174.9271137
3.966,-0.189091397,174.9271137
3.967,-0.203776474,174.9271137
3.968,-0.218142311,174.9271137
3.969,-0.230273462,174.9271137
3.97,-0.239850686,174.9271137
3.971,-0.245597021,174.9271137
3.972,-0.246873984,174.9271137
3.973,-0.244320058,174.9271137
3.974,-0.237935242,174.9271137
3.975,-0.228038776,174.9271137
3.976,-0.216226866,174.9271137
3.977,-0.203776474,174.9271137
3.978,-0.191964564,174.9271137
3.979,-0.182068099,174.9271137
3.98,-0.17472556,174.9271137
3.981,-0.171213911,174.9271137
3.982,-0.171533152,174.9271137
3.983,-0.176002523,174.9271137
3.984,-0.183983544,174.9271137
3.985,-0.194837732,174.9271137
3.986,-0.207288123,174.9271137
3.987,-0.220376997,174.9271137
3.988,-0.232827389,174.9271137
3.989,-0.243362335,174.9271137
3.99,-0.251024115,174.9271137
3.991,-0.254855005,174.9271137
3.992,-0.254535764,174.9271137
3.993,-0.249747152,174.9271137
3.994,-0.240808409,174.9271137
3.995,-0.228677258,174.9271137
3.996,-0.214630662,174.9271137
3.997,-0.199626344,174.9271137
3.998,-0.185898989,174.9271137
3.999,-0.174087079,174.9271137
4,-0.165148336,174.9271137
4.001,-0.159721242,174.9271137
4.002,-0.158763519,174.9271137
4.003,-0.161636687,174.9271137
4.004,-0.168659985,174.9271137
4.005,-0.179194932,174.9271137
4.006,-0.191326083,174.9271137
4.007,-0.204734197,174.9271137
4.008,-0.217184589,174.9271137
4.009,-0.228038776,174.9271137
4.01,-0.236339038,174.9271137
4.011,-0.240489168,174.9271137
4.012,-0.240489168,174.9271137
4.013,-0.236019797,174.9271137
4.014,-0.227081054,174.9271137
4.015,-0.214311421,174.9271137
4.016,-0.198987862,174.9271137
4.017,-0.182706581,174.9271137
4.018,-0.166106058,174.9271137
4.019,-0.151420981,174.9271137
4.02,-0.138970589,174.9271137
4.021,-0.130351087,174.9271137
4.022,-0.125562475,174.9271137
4.023,-0.124923993,174.9271137
4.024,-0.128116401,174.9271137
4.025,-0.134501217,174.9271137
4.026,-0.143120719,174.9271137
4.027,-0.152378703,174.9271137
4.028,-0.161636687,174.9271137
4.029,-0.169298466,174.9271137
4.03,-0.17472556,174.9271137
4.031,-0.176960246,174.9271137
4.032,-0.175683283,174.9271137
4.033,-0.169936948,174.9271137
4.034,-0.160678964,174.9271137
4.035,-0.147909332,174.9271137
4.036,-0.133224254,174.9271137
4.037,-0.117262213,174.9271137
4.038,-0.101300173,174.9271137
4.039,-0.087253577,174.9271137
4.04,-0.075441667,174.9271137
4.041,-0.067460646,174.9271137
4.042,-0.063310516,174.9271137
4.043,-0.063310516,174.9271137
4.044,-0.067460646,174.9271137
4.045,-0.074803185,174.9271137
4.046,-0.084380409,174.9271137
4.047,-0.095553838,174.9271137
4.048,-0.106727266,174.9271137
4.049,-0.116942973,174.9271137
4.05,-0.125243234,174.9271137
4.051,-0.130351087,174.9271137
4.052,-0.131947291,174.9271137
4.053,-0.129712605,174.9271137
4.054,-0.124285511,174.9271137
4.055,-0.11598525,174.9271137
4.056,-0.105769544,174.9271137
4.057,-0.094915356,174.9271137
4.058,-0.085338132,174.9271137
4.059,-0.077676352,174.9271137
4.06,-0.073206981,174.9271137
4.061,-0.07288774,174.9271137
4.062,-0.07671863,174.9271137
4.063,-0.085018891,174.9271137
4.064,-0.097469283,174.9271137
4.065,-0.113112083,174.9271137
4.066,-0.131308809,174.9271137
4.067,-0.150463258,174.9271137
4.068,-0.169298466,174.9271137
4.069,-0.186856711,174.9271137
4.07,-0.20218027,166.2049861
4.071,-0.21367294,166.2049861
4.072,-0.22165396,166.2049861
4.073,-0.224846368,166.2049861
4.074,-0.224207887,166.2049861
4.075,-0.219738515,166.2049861
4.076,-0.212715217,166.2049861
4.077,-0.204095715,166.2049861
4.078,-0.195795454,166.2049861
4.079,-0.188452915,166.2049861
4.08,-0.183983544,166.2049861
4.081,-0.182706581,166.2049861
4.082,-0.185579748,166.2049861
4.083,-0.192603046,166.2049861
4.084,-0.203137993,166.2049861
4.085,-0.217503829,166.2049861
4.086,-0.234104352,166.2049861
4.087,-0.251981837,166.2049861
4.088,-0.270178564,166.2049861
4.089,-0.286779086,166.2049861
4.09,-0.301144923,166.2049861
4.091,-0.311999111,166.2049861
4.092,-0.319022409,166.2049861
4.093,-0.321576335,166.2049861
4.094,-0.31966089,166.2049861
4.095,-0.313914556,166.2049861
4.096,-0.305295054,166.2049861
4.097,-0.295398588,166.2049861
4.098,-0.285502123,166.2049861
4.099,-0.276882621,166.2049861
4.1,-0.270817046,166.2049861
4.101,-0.267943878,166.2049861
4.102,-0.26858236,166.2049861
4.103,-0.273370972,166.2049861
4.104,-0.281671233,166.2049861
4.105,-0.292844662,166.2049861
4.106,-0.306572017,166.2049861
4.107,-0.321257094,166.2049861
4.108,-0.336261413,166.2049861
4.109,-0.349669527,166.2049861
4.11,-0.361162196,166.2049861
4.111,-0.369143217,166.2049861
4.112,-0.372974107,166.2049861
4.113,-0.372335625,166.2049861
4.114,-0.367227772,166.2049861
4.115,-0.35860827,166.2049861
4.116,-0.3471156,166.2049861
4.117,-0.334026727,166.2049861
4.118,-0.320618613,166.2049861
4.119,-0.308487462,166.2049861
4.12,-0.298590997,166.2049861
4.121,-0.29220618,166.2049861
4.122,-0.289333013,166.2049861
4.123,-0.291248458,166.2049861
4.124,-0.296994792,166.2049861
4.125,-0.306252776,166.2049861
4.126,-0.318383927,166.2049861
4.127,-0.331792041,166.2049861
4.128,-0.345519396,166.2049861
4.129,-0.35860827,166.2049861
4.13,-0.369143217,166.2049861
4.131,-0.376804996,166.2049861
4.132,-0.380635886,166.2049861
4.133,-0.379997404,166.2049861
4.134,-0.375528033,166.2049861
4.135,-0.367227772,166.2049861
4.136,-0.356054343,166.2049861
4.137,-0.343284711,166.2049861
4.138,-0.330515078,166.2049861
4.139,-0.318383927,166.2049861
4.14,-0.308806703,166.2049861
4.141,-0.302421886,166.2049861
4.142,-0.300187201,166.2049861
4.143,-0.302102645,166.2049861
4.144,-0.308487462,166.2049861
4.145,-0.318703168,166.2049861
4.146,-0.331472801,166.2049861
4.147,-0.345838637,166.2049861
4.148,-0.360842956,166.2049861
4.149,-0.374570311,166.2049861
4.15,-0.38606298,166.2049861
4.151,-0.394363241,166.2049861
4.152,-0.398513372,166.2049861
4.153,-0.39787489,166.2049861
4.154,-0.392447796,166.2049861
4.155,-0.382551331,166.2049861
4.156,-0.368185494,166.2049861
4.157,-0.35094649,166.2049861
4.158,-0.332111282,166.2049861
4.159,-0.312637592,166.2049861
4.16,-0.294440866,166.2049861
4.161,-0.278478825,166.2049861
4.162,-0.265389952,166.2049861
4.163,-0.255493486,166.2049861
4.164,-0.24910867,166.2049861
4.165,-0.245916262,166.2049861
4.166,-0.24527778,166.2049861
4.167,-0.246235503,166.2049861
4.168,-0.247193225,166.2049861
4.169,-0.247193225,166.2049861
4.17,-0.244000817,166.2049861
4.171,-0.23729676,166.2049861
4.172,-0.226123331,166.2049861
4.173,-0.210161291,166.2049861
4.174,-0.189729878,166.2049861
4.175,-0.165786817,166.2049861
4.176,-0.13960907,166.2049861
4.177,-0.112473601,166.2049861
4.178,-0.086295854,166.2049861
4.179,-0.062352793,166.2049861
4.18,-0.042879103,166.2049861
4.181,-0.028832508,166.2049861
4.182,-0.02180921,166.2049861
4.183,-0.022766932,166.2049861
4.184,-0.032024916,166.2049861
4.185,-0.049583161,166.2049861
4.186,-0.074164703,166.2049861
4.187,-0.104811822,166.2049861
4.188,-0.139928311,166.2049861
4.189,-0.177917968,166.2049861
4.19,-0.216865348,166.2049861
4.191,-0.255812727,166.2049861
4.192,-0.292844662,166.2049861
4.193,-0.32732267,166.2049861
4.194,-0.357650547,166.2049861
4.195,-0.383828294,166.2049861
4.196,-0.40553667,166.2049861
4.197,-0.423094915,166.2049861
4.198,-0.437460751,166.2049861
4.199,-0.449272661,166.2049861
4.2,-0.459488367,166.2049861
4.201,-0.469065592,166.2049861
4.202,-0.478962057,166.2049861
4.203,-0.489816245,166.2049861
4.204,-0.501947396,166.2049861
4.205,-0.515036269,166.2049861
4.206,-0.529082865,166.2049861
4.207,-0.54281022,166.2049861
4.208,-0.556218335,166.2049861
4.209,-0.567711004,166.2049861
4.21,-0.576649747,166.2049861
4.211,-0.582076841,166.2049861
4.212,-0.583673045,166.2049861
4.213,-0.580799877,166.2049861
