sec,mV,BPM
0,0.007218428,0
0.001,0.007218428,0
0.002,0.006260821,0
0.003,0.002749595,0
0.004,-0.004272858,0
0.005,-0.01512574,0
0.006,-0.029809051,0
0.007,-0.047365183,0
0.008,-0.067794137,0
0.009,-0.090457508,0
0.01,-0.115036093,0
0.011,-0.140891488,0
0.012,-0.16770449,0
0.013,-0.194836694,0
0.014,-0.221649697,0
0.015,-0.247185889,0
0.016,-0.271126069,0
0.017,-0.292193428,0
0.018,-0.310387965,0
0.019,-0.324752074,0
0.02,-0.334966551,0
0.021,-0.341031396,0
0.022,-0.343585016,0
0.023,-0.342627408,0
0.024,-0.339116182,0
0.025,-0.333689741,0
0.026,-0.32698649,0
0.027,-0.32028324,0
0.028,-0.313899192,0
0.029,-0.308153549,0
0.03,-0.30432312,0
0.031,-0.302088703,0
0.032,-0.3017695,0
0.033,-0.30304631,0
0.034,-0.305599929,0
0.035,-0.309430358,0
0.036,-0.313579989,0
0.037,-0.317729621,0
0.038,-0.32156005,0
0.039,-0.324432871,0
0.04,-0.326348086,0
0.041,-0.326667288,0
0.042,-0.325709681,0
0.043,-0.323475264,0
0.044,-0.320602442,0
0.045,-0.316772013,0
0.046,-0.312941585,0
0.047,-0.309430358,0
0.048,-0.306876739,0
0.049,-0.304961524,0
0.05,-0.304642322,0
0.051,-0.305280727,0
0.052,-0.306876739,0
0.053,-0.309111156,0
0.054,-0.311664775,0
0.055,-0.314856799,0
0.056,-0.317410418,0
0.057,-0.319325633,0
0.058,-0.32028324,0
0.059,-0.319964038,0
0.06,-0.318048823,0
0.061,-0.314856799,0
0.062,-0.310707168,0
0.063,-0.305919132,0
0.064,-0.300811893,0
0.065,-0.295704655,0
0.066,-0.291235821,0
0.067,-0.287724595,0
0.068,-0.285170975,0
0.069,-0.283894166,0
0.07,-0.284532571,0
0.071,-0.286447785,0
0.072,-0.289959011,0
0.073,-0.294747047,0
0.074,-0.300173488,0
0.075,-0.306238334,0
0.076,-0.311983977,0
0.077,-0.317410418,0
0.078,-0.32156005,0
0.079,-0.324752074,0
0.08,-0.326667288,0
0.081,-0.32698649,0
0.082,-0.326348086,0
0.083,-0.324752074,0
0.084,-0.322517657,0
0.085,-0.32028324,0
0.086,-0.318048823,0
0.087,-0.316452811,0
0.088,-0.315814406,0
0.089,-0.316452811,0
0.09,-0.318368026,0
0.091,-0.321240847,0
0.092,-0.325709681,0
0.093,-0.331136122,0
0.094,-0.336881765,0
0.095,-0.342627408,0
0.096,-0.347734647,0
0.097,-0.351565076,0
0.098,-0.354118695,0
0.099,-0.3547571,0
0.1,-0.353799493,0
0.101,-0.351245873,0
0.102,-0.347734647,0
0.103,-0.343265813,0
0.104,-0.338477777,0
0.105,-0.333689741,0
0.106,-0.328901705,0
0.107,-0.324752074,0
0.108,-0.32156005,0
0.109,-0.319325633,0
0.11,-0.318687228,0
0.111,-0.319325633,0
0.112,-0.32156005,0
0.113,-0.324432871,0
0.114,-0.327944098,0
0.115,-0.331455324,0
0.116,-0.334647348,0
0.117,-0.33752017,0
0.118,-0.339435384,0
0.119,-0.340392992,0
0.12,-0.340073789,0
0.121,-0.339435384,0
0.122,-0.337839372,0
0.123,-0.335924158,0
0.124,-0.334328146,0
0.125,-0.333370539,0
0.126,-0.333051336,0
0.127,-0.334328146,0
0.128,-0.337200967,0
0.129,-0.341350599,0
0.13,-0.34677704,0
0.131,-0.353161088,0
0.132,-0.360183541,0
0.133,-0.367525196,0
0.134,-0.373909244,0
0.135,-0.379016483,0
0.136,-0.381570102,0
0.137,-0.381570102,0
0.138,-0.377739673,0
0.139,-0.370078815,0
0.14,-0.358268326,0
0.141,-0.342308206,0
0.142,-0.322198454,0
0.143,-0.297939072,0
0.144,-0.269530057,0
0.145,-0.237929019,0
0.146,-0.203455159,0
0.147,-0.165789276,0
0.148,-0.126208177,0
0.149,-0.08407346,0
0.15,-0.040023528,0
0.151,0.006260821,0
0.152,0.054460385,0
0.153,0.105532769,0
0.154,0.159477976,0
0.155,0.215338397,0
0.156,0.272156425,0
0.157,0.329612858,0
0.158,0.386111684,0
0.159,0.440695296,0
0.16,0.492725288,0
0.161,0.540605649,0
0.162,0.583059569,0
0.163,0.619767845,0
0.164,0.648496062,0
0.165,0.668605813,0
0.166,0.67882029,0
0.167,0.677862683,0
0.168,0.665413789,0
0.169,0.641473609,0
0.17,0.605722939,0
0.171,0.559438591,0
0.172,0.50357817,0
0.173,0.440056891,0
0.174,0.370470766,0
0.175,0.296735011,0
0.176,0.220445636,0
0.177,0.143837058,0
0.178,0.067866886,0
0.179,-0.005549668,0
0.18,-0.076731804,0
0.181,-0.144083512,0
0.182,-0.207285588,0
0.183,-0.266338033,0
0.184,-0.321240847,0
0.185,-0.371674827,0
0.186,-0.417959176,0
0.187,-0.460093894,0
0.188,-0.497759778,0
0.189,-0.530956828,0
0.19,-0.560323449,0
0.191,-0.584902034,0
0.192,-0.604692584,0
0.193,-0.619695097,0
0.194,-0.629271169,0
0.195,-0.6334208,0
0.196,-0.632463193,0
0.197,-0.626079145,0
0.198,-0.614907061,0
0.199,-0.599266143,0
0.2,-0.578837189,0
0.201,-0.555216211,0
0.202,-0.528722411,0
0.203,-0.500632599,0
0.204,-0.471904383,0
0.205,-0.444452976,0
0.206,-0.418597581,0
0.207,-0.39593421,0
0.208,-0.376462863,0
0.209,-0.36146035,0
0.21,-0.350607469,0
0.211,-0.34422342,0
0.212,-0.341350599,0
0.213,-0.341669801,0
0.214,-0.344542623,0
0.215,-0.349011456,0
0.216,-0.3547571,0
0.217,-0.360821946,0
0.218,-0.366248386,0
0.219,-0.37071722,0
0.22,-0.373909244,0
0.221,-0.375186054,0
0.222,-0.375186054,0
0.223,-0.373590042,0
0.224,-0.37071722,0
0.225,-0.367205994,0
0.226,-0.363694767,0
0.227,-0.360183541,0
0.228,-0.357310719,0
0.229,-0.355395505,0
0.23,-0.354437897,0
0.231,-0.355076302,0
0.232,-0.356353112,0
0.233,-0.358268326,0
0.234,-0.360821946,0
0.235,-0.363056362,0
0.236,-0.364971577,0
0.237,-0.366567589,0
0.238,-0.366886791,0
0.239,-0.365929184,0
0.24,-0.363694767,0
0.241,-0.360183541,0
0.242,-0.355714707,0
0.243,-0.350288266,0
0.244,-0.344542623,0
0.245,-0.339116182,0
0.246,-0.334647348,0
0.247,-0.331136122,0
0.248,-0.328901705,0
0.249,-0.327944098,0
0.25,-0.328582503,0
0.251,-0.330497717,0
0.252,-0.333370539,0
0.253,-0.337200967,0
0.254,-0.341350599,0
0.255,-0.345181028,0
0.256,-0.348692254,0
0.257,-0.351245873,0
0.258,-0.352203481,0
0.259,-0.352203481,0
0.26,-0.350288266,0
0.261,-0.347096242,0
0.262,-0.342627408,0
0.263,-0.337200967,0
0.264,-0.331136122,0
0.265,-0.325390478,0
0.266,-0.319964038,0
0.267,-0.315495204,0
0.268,-0.31230318,0
0.269,-0.310707168,0
0.27,-0.310387965,0
0.271,-0.311345573,0
0.272,-0.313899192,0
0.273,-0.317410418,0
0.274,-0.32156005,0
0.275,-0.326028883,0
0.276,-0.330178515,0
0.277,-0.333370539,0
0.278,-0.335924158,0
0.279,-0.336881765,0
0.28,-0.33624336,0
0.281,-0.334328146,0
0.282,-0.331136122,0
0.283,-0.327305693,0
0.284,-0.322836859,0
0.285,-0.318368026,0
0.286,-0.314218394,0
0.287,-0.31102637,0
0.288,-0.308791953,0
0.289,-0.307515144,0
0.29,-0.307834346,0
0.291,-0.309430358,0
0.292,-0.311664775,0
0.293,-0.314856799,0
0.294,-0.318368026,0
0.295,-0.321240847,0
0.296,-0.323794466,0
0.297,-0.325071276,0
0.298,-0.325071276,0
0.299,-0.323794466,0
0.3,-0.320921645,0
0.301,-0.317091216,0
0.302,-0.312622382,0
0.303,-0.307515144,0
0.304,-0.302088703,0
0.305,-0.297300667,0
0.306,-0.292831833,0
0.307,-0.289320607,0
0.308,-0.28708619,0
0.309,-0.286128583,0
0.31,-0.286447785,0
0.311,-0.288362999,0
0.312,-0.291235821,0
0.313,-0.29506625,0
0.314,-0.299215881,0
0.315,-0.303365512,0
0.316,-0.306876739,0
0.317,-0.309430358,0
0.318,-0.310707168,0
0.319,-0.310387965,0
0.32,-0.308791953,0
0.321,-0.305280727,0
0.322,-0.300492691,0
0.323,-0.29506625,0
0.324,-0.289320607,0
0.325,-0.284213368,0
0.326,-0.279744534,0
0.327,-0.276233308,0
0.328,-0.274318094,0
0.329,-0.273998891,0
0.33,-0.274637296,0
0.331,-0.276871713,0
0.332,-0.279744534,0
0.333,-0.283255761,0
0.334,-0.28708619,0
0.335,-0.290278214,0
0.336,-0.293151035,0
0.337,-0.294747047,0
0.338,-0.29506625,0
0.339,-0.29378944,0
0.34,-0.290597416,0
0.341,-0.286447785,0
0.342,-0.280702142,0
0.343,-0.274637296,0
0.344,-0.267934045,0
0.345,-0.261549997,0
0.346,-0.255804354,0
0.347,-0.251016318,0
0.348,-0.247505091,0
0.349,-0.245589877,0
0.35,-0.245270675,0
0.351,-0.246228282,0
0.352,-0.248781901,0
0.353,-0.251654723,0
0.354,-0.255165949,0
0.355,-0.258357973,0
0.356,-0.261230795,0
0.357,-0.263465212,0
0.358,-0.264103617,0
0.359,-0.263784414,0
0.36,-0.261549997,0
0.361,-0.258357973,0
0.362,-0.25388914,0
0.363,-0.248781901,0
0.364,-0.24335546,0
0.365,-0.237929019,0
0.366,-0.233460186,0
0.367,-0.229948959,0
0.368,-0.227714542,0
0.369,-0.226756935,0
0.37,-0.22739534,0
0.371,-0.228991352,0
0.372,-0.231225769,0
0.373,-0.234417793,0
0.374,-0.237609817,0
0.375,-0.240482638,0
0.376,-0.242717055,0
0.377,-0.243993865,0
0.378,-0.244313067,0
0.379,-0.243036258,0
0.38,-0.240482638,0
0.381,-0.236971412,0
0.382,-0.232502578,0
0.383,-0.22739534,0
0.384,-0.221968899,0
0.385,-0.216542458,0
0.386,-0.212073624,0
0.387,-0.208562398,0
0.388,-0.206647183,0
0.389,-0.206647183,0
0.39,-0.207923993,0
0.391,-0.210796815,0
0.392,-0.214946446,0
0.393,-0.219734482,0
0.394,-0.224841721,0
0.395,-0.229948959,0
0.396,-0.234417793,0
0.397,-0.238248222,0
0.398,-0.240801841,0
0.399,-0.242397853,0
0.4,-0.242717055,0
0.401,-0.242397853,0
0.402,-0.240801841,0
0.403,-0.238886626,0
0.404,-0.236971412,0
0.405,-0.235056198,0
0.406,-0.23409859,0
0.407,-0.233779388,0
0.408,-0.234736995,0
0.409,-0.236971412,0
0.41,-0.240163436,0
0.411,-0.24463227,0
0.412,-0.249420306,0
0.413,-0.255165949,0
0.414,-0.26059239,0
0.415,-0.265699629,0
0.416,-0.270168462,0
0.417,-0.273679689,0
0.418,-0.275914106,0
0.419,-0.276871713,0
0.42,-0.276233308,0
0.421,-0.274956498,0
0.422,-0.272722081,0
0.423,-0.270168462,0
0.424,-0.267934045,0
0.425,-0.266018831,0
0.426,-0.264742021,0
0.427,-0.265061224,0
0.428,-0.266338033,0
0.429,-0.268891653,0
0.43,-0.273041284,0
0.431,-0.278467725,0
0.432,-0.284532571,0
0.433,-0.290916619,0
0.434,-0.297300667,0
0.435,-0.303365512,0
0.436,-0.308153549,0
0.437,-0.311664775,0
0.438,-0.313899192,0
0.439,-0.314537597,0
0.44,-0.313899192,0
0.441,-0.31230318,0
0.442,-0.309749561,0
0.443,-0.306557537,0
0.444,-0.304003917,0
0.445,-0.301450298,0
0.446,-0.300173488,0
0.447,-0.300173488,0
0.448,-0.301450298,0
0.449,-0.30432312,0
0.45,-0.308472751,0
0.451,-0.314218394,0
0.452,-0.320921645,0
0.453,-0.327624895,0
0.454,-0.334647348,0
0.455,-0.341350599,0
0.456,-0.347096242,0
0.457,-0.351565076,0
0.458,-0.354118695,0
0.459,-0.355076302,0
0.46,-0.354118695,0
0.461,-0.351884278,0
0.462,-0.348053849,0
0.463,-0.343265813,0
0.464,-0.33879698,0
0.465,-0.334328146,0
0.466,-0.330816919,0
0.467,-0.328582503,0
0.468,-0.327305693,0
0.469,-0.327624895,0
0.47,-0.328901705,0
0.471,-0.331455324,0
0.472,-0.335285753,0
0.473,-0.339435384,0
0.474,-0.34422342,0
0.475,-0.348692254,0
0.476,-0.352841885,0
0.477,-0.356033909,0
0.478,-0.357949124,0
0.479,-0.357949124,0
0.48,-0.356991517,0
0.481,-0.354437897,0
0.482,-0.351565076,0
0.483,-0.348053849,0
0.484,-0.344542623,0
0.485,-0.341350599,0
0.486,-0.33879698,0
0.487,-0.33752017,0
0.488,-0.33752017,0
0.489,-0.33879698,0
0.49,-0.341350599,0
0.491,-0.344861825,0
0.492,-0.349011456,0
0.493,-0.353799493,0
0.494,-0.358587529,0
0.495,-0.36273716,0
0.496,-0.366248386,0
0.497,-0.368482803,0
0.498,-0.36944041,0
0.499,-0.368482803,0
0.5,-0.366248386,0
0.501,-0.363056362,0
0.502,-0.359225933,0
0.503,-0.3547571,0
0.504,-0.350926671,0
0.505,-0.347096242,0
0.506,-0.34422342,0
0.507,-0.342946611,0
0.508,-0.342627408,0
0.509,-0.343904218,0
0.51,-0.346457837,0
0.511,-0.350607469,0
0.512,-0.355076302,0
0.513,-0.360183541,0
0.514,-0.364971577,0
0.515,-0.36944041,0
0.516,-0.373270839,0
0.517,-0.375505256,0
0.518,-0.376143661,0
0.519,-0.374866851,0
0.52,-0.37199403,0
0.521,-0.367844398,0
0.522,-0.362098755,0
0.523,-0.356033909,0
0.524,-0.349969064,0
0.525,-0.34422342,0
0.526,-0.339754587,0
0.527,-0.33624336,0
0.528,-0.334328146,0
0.529,-0.333689741,0
0.53,-0.334647348,0
0.531,-0.336881765,0
0.532,-0.339754587,0
0.533,-0.343265813,0
0.534,-0.347096242,0
0.535,-0.350288266,0
0.536,-0.352522683,0
0.537,-0.354118695,0
0.538,-0.354118695,0
0.539,-0.352841885,0
0.54,-0.350288266,0
0.541,-0.34677704,0
0.542,-0.342308206,0
0.543,-0.33752017,0
0.544,-0.332732134,0
0.545,-0.328582503,0
0.546,-0.325071276,0
0.547,-0.322836859,0
0.548,-0.321879252,0
0.549,-0.322198454,0
0.55,-0.323475264,0
0.551,-0.326028883,0
0.552,-0.329220907,0
0.553,-0.332732134,0
0.554,-0.335924158,0
0.555,-0.33879698,0
0.556,-0.341031396,0
0.557,-0.341669801,0
0.558,-0.341031396,0
0.559,-0.33879698,0
0.56,-0.335285753,0
0.561,-0.330497717,0
0.562,-0.324752074,0
0.563,-0.31900643,0
0.564,-0.313579989,0
0.565,-0.308791953,0
0.566,-0.305280727,0
0.567,-0.303365512,0
0.568,-0.303365512,0
0.569,-0.304961524,0
0.57,-0.308153549,0
0.571,-0.31230318,0
0.572,-0.317410418,0
0.573,-0.322517657,0
0.574,-0.327624895,0
0.575,-0.332093729,0
0.576,-0.335285753,0
0.577,-0.337200967,0
0.578,-0.337200967,0
0.579,-0.335285753,0
0.58,-0.331774527,0
0.581,-0.32698649,0
0.582,-0.321240847,0
0.583,-0.314856799,0
0.584,-0.308472751,0
0.585,-0.302727108,0
0.586,-0.297619869,0
0.587,-0.294108643,0
0.588,-0.291874226,0
0.589,-0.291235821,0
0.59,-0.292193428,0
0.591,-0.294108643,0
0.592,-0.297300667,0
0.593,-0.300811893,0
0.594,-0.30432312,0
0.595,-0.307515144,0
0.596,-0.310387965,0
0.597,-0.311983977,0
0.598,-0.311983977,0
0.599,-0.310707168,0
0.6,-0.308153549,0
0.601,-0.30432312,0
0.602,-0.299535084,0
0.603,-0.294747047,0
0.604,-0.289959011,0
0.605,-0.285490178,0
0.606,-0.282298154,0
0.607,-0.280063737,0
0.608,-0.279425332,0
0.609,-0.280063737,0
0.61,-0.281978951,0
0.611,-0.285170975,0
0.612,-0.288682202,0
0.613,-0.292831833,0
0.614,-0.296662262,0
0.615,-0.299854286,0
0.616,-0.302088703,0
0.617,-0.303365512,0
0.618,-0.302727108,0
0.619,-0.300811893,0
0.62,-0.297300667,0
0.621,-0.292512631,0
0.622,-0.286766987,0
0.623,-0.281021344,0
0.624,-0.275594903,0
0.625,-0.270806867,0
0.626,-0.267295641,0
0.627,-0.265061224,0
0.628,-0.264422819,0
0.629,-0.265061224,0
0.63,-0.267614843,0
0.631,-0.271445272,0
0.632,-0.275914106,0
0.633,-0.281021344,0
0.634,-0.286128583,0
0.635,-0.290597416,0
0.636,-0.294427845,0
0.637,-0.296981464,0
0.638,-0.297939072,0
0.639,-0.297619869,0
0.64,-0.295385452,0
0.641,-0.292193428,0
0.642,-0.288043797,0
0.643,-0.283255761,0
0.644,-0.278467725,0
0.645,-0.274637296,0
0.646,-0.271445272,0
0.647,-0.269530057,0
0.648,-0.268891653,0
0.649,-0.269530057,0
0.65,-0.270806867,0
0.651,-0.273041284,0
0.652,-0.275594903,0
0.653,-0.278786927,0
0.654,-0.281659749,0
0.655,-0.283894166,0
0.656,-0.285490178,0
0.657,-0.286128583,0
0.658,-0.285490178,0
0.659,-0.283574963,0
0.66,-0.280702142,0
0.661,-0.27655251,0
0.662,-0.272083677,0
0.663,-0.267614843,0
0.664,-0.263146009,0
0.665,-0.25931558,0
0.666,-0.256761961,0
0.667,-0.255485152,0
0.668,-0.255485152,0
0.669,-0.257081164,0
0.67,-0.259634783,0
0.671,-0.263465212,0
0.672,-0.267614843,0
0.673,-0.271764474,0
0.674,-0.275594903,0
0.675,-0.278786927,0
0.676,-0.280702142,0
0.677,-0.281340546,0
0.678,-0.280382939,0
0.679,-0.27782932,0
0.68,-0.273679689,0
0.681,-0.268891653,0
0.682,-0.263146009,0
0.683,-0.257719568,0
0.684,-0.252293128,0
0.685,-0.247824294,0
0.686,-0.24463227,0
0.687,-0.242717055,0
0.688,-0.242397853,0
0.689,-0.24335546,0
0.69,-0.245589877,0
0.691,-0.249101103,0
0.692,-0.253250735,0
0.693,-0.257400366,0
0.694,-0.261230795,0
0.695,-0.264422819,0
0.696,-0.266338033,0
0.697,-0.266976438,0
0.698,-0.266018831,0
0.699,-0.263146009,0
0.7,-0.258996378,0
0.701,-0.25388914,0
0.702,-0.248143496,0
0.703,-0.242717055,0
0.704,-0.237609817,0
0.705,-0.233460186,0
0.706,-0.230587364,0
0.707,-0.228991352,0
0.708,-0.228672149,0
0.709,-0.229948959,0
0.71,-0.232502578,0
0.711,-0.236013805,0
0.712,-0.240482638,0
0.713,-0.245589877,0
0.714,-0.250058711,0
0.715,-0.254208342,0
0.716,-0.257081164,0
0.717,-0.258677176,0
0.718,-0.258677176,0
0.719,-0.257081164,0
0.72,-0.25388914,0
0.721,-0.249739508,0
0.722,-0.24463227,0
0.723,-0.239525031,0
0.724,-0.234417793,0
0.725,-0.229948959,0
0.726,-0.22611853,0
0.727,-0.223884113,0
0.728,-0.222607304,0
0.729,-0.222926506,0
0.73,-0.224203316,0
0.731,-0.227076137,0
0.732,-0.230587364,0
0.733,-0.234736995,0
0.734,-0.238567424,0
0.735,-0.242078651,0
0.736,-0.24463227,0
0.737,-0.245909079,0
0.738,-0.245270675,0
0.739,-0.24335546,0
0.74,-0.239844234,0
0.741,-0.235694602,0
0.742,-0.230587364,0
0.743,-0.225480125,0
0.744,-0.220692089,0
0.745,-0.216542458,0
0.746,-0.213988839,0
0.747,-0.212712029,0
0.748,-0.213350434,0
0.749,-0.214946446,0
0.75,-0.217819268,0
0.751,-0.221649697,0
0.752,-0.225799328,0
0.753,-0.230268162,0
0.754,-0.234417793,0
0.755,-0.238248222,0
0.756,-0.240801841,0
0.757,-0.242397853,0
0.758,-0.242397853,0
0.759,-0.241121043,0
0.76,-0.238886626,0
0.761,-0.2353754,0
0.762,-0.231544971,0
0.763,-0.22739534,0
0.764,-0.223245709,0
0.765,-0.219734482,0
0.766,-0.21686166,0
0.767,-0.215265648,0
0.768,-0.214946446,0
0.769,-0.215904053,0
0.77,-0.21813847,0
0.771,-0.221011292,0
0.772,-0.224203316,0
0.773,-0.227714542,0
0.774,-0.230906566,0
0.775,-0.233140983,0
0.776,-0.234736995,0
0.777,-0.234736995,0
0.778,-0.233779388,0
0.779,-0.231225769,0
0.78,-0.22739534,0
0.781,-0.222926506,0
0.782,-0.217819268,0
0.783,-0.212712029,0
0.784,-0.208243196,0
0.785,-0.204731969,0
0.786,-0.20217835,0
0.787,-0.201220743,0
0.788,-0.201539945,0
0.789,-0.203135957,0
0.79,-0.205689576,0
0.791,-0.209200803,0
0.792,-0.213031232,0
0.793,-0.21686166,0
0.794,-0.220053685,0
0.795,-0.222288101,0
0.796,-0.223564911,0
0.797,-0.223245709,0
0.798,-0.221330494,0
0.799,-0.21813847,0
0.8,-0.213669636,0
0.801,-0.208562398,0
0.802,-0.202497552,0
0.803,-0.196751909,0
0.804,-0.19164467,0
0.805,-0.187175837,0
0.806,-0.184303015,0
0.807,-0.182707003,0
0.808,-0.182707003,0
0.809,-0.184622217,0
0.81,-0.187495039,0
0.811,-0.191325468,0
0.812,-0.195475099,0
0.813,-0.199305528,0
0.814,-0.203135957,0
0.815,-0.205689576,0
0.816,-0.206966386,0
0.817,-0.206966386,0
0.818,-0.205370374,0
0.819,-0.202497552,0
0.82,-0.198347921,0
0.821,-0.193559885,0
0.822,-0.188452646,0
0.823,-0.183026205,0
0.824,-0.177918967,0
0.825,-0.173769336,0
0.826,-0.170258109,0
0.827,-0.168342895,0
0.828,-0.168023692,0
0.829,-0.1689813,0
0.83,-0.170896514,0
0.831,-0.17440774,0
0.832,-0.178557372,0
0.833,-0.182707003,0
0.834,-0.186537432,0
0.835,-0.189729456,0
0.836,-0.19164467,0
0.837,-0.191963873,0
0.838,-0.191006266,0
0.839,-0.188452646,0
0.84,-0.184622217,0
0.841,-0.180472586,0
0.842,-0.17568455,0
0.843,-0.171534919,0
0.844,-0.16770449,0
0.845,-0.164831668,0
0.846,-0.162916454,0
0.847,-0.162278049,0
0.848,-0.163235656,0
0.849,-0.165789276,0
0.85,-0.1689813,0
0.851,-0.173130931,0
0.852,-0.177599765,0
0.853,-0.181749396,0
0.854,-0.185260622,0
0.855,-0.187814242,0
0.856,-0.189091051,0
0.857,-0.189091051,0
0.858,-0.187495039,0
0.859,-0.184303015,0
0.86,-0.180153384,0
0.861,-0.174726943,0
0.862,-0.1689813,0
0.863,-0.163235656,0
0.864,-0.158128418,0
0.865,-0.153340382,0
0.866,-0.150148358,0
0.867,-0.148233143,0
0.868,-0.148233143,0
0.869,-0.149509953,0
0.87,-0.152063572,0
0.871,-0.155894001,0
0.872,-0.15972443,0
0.873,-0.163235656,0
0.874,-0.16642768,0
0.875,-0.168342895,0
0.876,-0.1689813,0
0.877,-0.168342895,0
0.878,-0.16642768,0
0.879,-0.163235656,0
0.88,-0.159086025,0
0.881,-0.154297989,0
0.882,-0.149509953,0
0.883,-0.144402714,0
0.884,-0.140253083,0
0.885,-0.136741857,0
0.886,-0.134826642,0
0.887,-0.13450744,0
0.888,-0.135784249,0
0.889,-0.138337869,0
0.89,-0.1424875,0
0.891,-0.147275536,0
0.892,-0.152701977,0
0.893,-0.157490013,0
0.894,-0.161958847,0
0.895,-0.165150871,0
0.896,-0.16642768,0
0.897,-0.166108478,0
0.898,-0.163874061,0
0.899,-0.160043632,0
0.9,-0.154617191,0
0.901,-0.148552346,0
0.902,-0.141529893,0
0.903,-0.13450744,0
0.904,-0.127804189,0
0.905,-0.121739344,0
0.906,-0.116632105,0
0.907,-0.113120879,0
0.908,-0.111205664,0
0.909,-0.110567259,0
0.91,-0.111205664,0
0.911,-0.112801676,0
0.912,-0.114716891,0
0.913,-0.116951307,0
0.914,-0.119185724,0
0.915,-0.120462534,0
0.916,-0.121100939,0
0.917,-0.120781736,0
0.918,-0.119824129,0
0.919,-0.118228117,0
0.92,-0.1159937,0
0.921,-0.113440081,0
0.922,-0.111524867,0
0.923,-0.109928855,0
0.924,-0.10929045,0
0.925,-0.110248057,0
0.926,-0.112482474,0
0.927,-0.116312903,0
0.928,-0.121739344,0
0.929,-0.128123392,0
0.93,-0.135465047,0
0.931,-0.143125905,0
0.932,-0.15046756,0
0.933,-0.157170811,0
0.934,-0.162916454,0
0.935,-0.167066085,0
0.936,-0.169300502,0
0.937,-0.169938907,0
0.938,-0.168342895,0
0.939,-0.165150871,0
0.94,-0.160043632,0
0.941,-0.153659584,0
0.942,-0.146956334,0
0.943,-0.140253083,0
0.944,-0.133869035,0
0.945,-0.129080999,0
0.946,-0.125569772,0
0.947,-0.123654558,0
0.948,-0.123335356,0
0.949,-0.124292963,0
0.95,-0.12652738,0
0.951,-0.129400201,0
0.952,-0.132592225,0
0.953,-0.135145845,0
0.954,-0.137061059,0
0.955,-0.138018666,0
0.956,-0.137699464,0
0.957,-0.136103452,0
0.958,-0.13323063,0
0.959,-0.129080999,0
0.96,-0.124612165,0
0.961,-0.119824129,0
0.962,-0.115674498,0
0.963,-0.112801676,0
0.964,-0.111524867,0
0.965,-0.112163271,0
0.966,-0.114716891,0
0.967,-0.119504927,0
0.968,-0.125888975,0
0.969,-0.133869035,0
0.97,-0.142806702,0
0.971,-0.152063572,0
0.972,-0.161001239,0
0.973,-0.1689813,0
0.974,-0.175365348,0
0.975,-0.179834181,0
0.976,-0.180791789,0
0.977,-0.178557372,0
0.978,-0.172492526,0
0.979,-0.162278049,0
0.98,-0.148233143,0
0.981,-0.130357808,0
0.982,-0.108971247,0
0.983,-0.085031067,0
0.984,-0.05885647,0
0.985,-0.030447455,0
0.986,-0.000123227,0
0.987,0.032116216,0
0.988,0.066909278,0
0.989,0.10425596,0
0.99,0.144156261,0
0.991,0.187248585,0
0.992,0.233852137,0
0.993,0.283966914,0
0.994,0.337912121,0
0.995,0.395049352,0
0.996,0.454740201,0
0.997,0.516027063,0
0.998,0.576994723,0
0.999,0.63636637,0
1,0.692545994,0
1.001,0.744256784,0
1.002,0.79022193,0
1.003,0.828845421,0
1.004,0.858850447,0
1.005,0.878960199,0
1.006,0.888536271,0
1.007,0.886621057,0
1.008,0.872895353,0
1.009,0.847997565,0
1.01,0.811927694,0
1.011,0.76628175,0
1.012,0.712336543,0
1.013,0.651688086,0
1.014,0.58593239,0
1.015,0.516665468,0
1.016,0.445802534,0
1.017,0.374620398,0
1.018,0.304715071,0
1.019,0.236724958,0
1.02,0.171288465,0
1.021,0.108724794,0
1.022,0.048714741,0
1.023,-0.008741692,0
1.024,-0.063963708,0
1.025,-0.116632105,0
1.026,-0.16642768,0
1.027,-0.213031232,0
1.028,-0.256123556,0
1.029,-0.29506625,0
1.03,-0.329859312,0
1.031,-0.359545136,0
1.032,-0.384123721,0
1.033,-0.402956663,0
1.034,-0.415405557,0
1.035,-0.421470403,0
1.036,-0.4211512,0
1.037,-0.414128747,0
1.038,-0.401360651,0
1.039,-0.383485316,0
1.04,-0.361141148,0
1.041,-0.335924158,0
1.042,-0.308791953,0
1.043,-0.281021344,0
1.044,-0.25388914,0
1.045,-0.227714542,0
1.046,-0.203774362,0
1.047,-0.182707003,0
1.048,-0.164831668,0
1.049,-0.15046756,0
1.05,-0.139614678,0
1.051,-0.131953821,0
1.052,-0.126846582,0
1.053,-0.123335356,0
1.054,-0.121420141,0
1.055,-0.120462534,0
1.056,-0.119185724,0
1.057,-0.117589712,0
1.058,-0.115355295,0
1.059,-0.112163271,0
1.06,-0.108332842,0
1.061,-0.104502414,0
1.062,-0.100991187,0
1.063,-0.098437568,0
1.064,-0.096522353,0
1.065,-0.095564746,0
1.066,-0.095883949,0
1.067,-0.097479961,0
1.068,-0.10003358,0
1.069,-0.103864009,0
1.07,-0.108332842,0
1.071,-0.112801676,0
1.072,-0.117589712,0
1.073,-0.121420141,0
1.074,-0.12397376,0
1.075,-0.12525057,0
1.076,-0.124612165,0
1.077,-0.122058546,0
1.078,-0.11727051,0
1.079,-0.111205664,0
1.08,-0.103864009,0
1.081,-0.096203151,0
1.082,-0.088542293,0
1.083,-0.08151984,0
1.084,-0.075454995,0
1.085,-0.071305363,0
1.086,-0.068432542,0
1.087,-0.067794137,0
1.088,-0.069070947,0
1.089,-0.071943768,0
1.09,-0.076093399,0
1.091,-0.080881436,0
1.092,-0.085350269,0
1.093,-0.089499901,0
1.094,-0.092372722,0
1.095,-0.093649532,0
1.096,-0.093330329,0
1.097,-0.091095913,0
1.098,-0.087584686,0
1.099,-0.08279665,0
1.1,-0.077051007,0
1.101,-0.070986161,0
1.102,-0.065240518,0
1.103,-0.060133279,0
1.104,-0.05630285,0
1.105,-0.053749231,0
1.106,-0.052791624,0
1.107,-0.053749231,0
1.108,-0.05630285,0
1.109,-0.060133279,0
1.11,-0.064921315,0
1.111,-0.069709351,0
1.112,-0.074497387,0
1.113,-0.078327816,0
1.114,-0.080881436,0
1.115,-0.081839043,0
1.116,-0.080881436,0
1.117,-0.078008614,0
1.118,-0.072901375,0
1.119,-0.066517327,0
1.12,-0.059175672,0
1.121,-0.051514814,0
1.122,-0.043853956,0
1.123,-0.037150706,0
1.124,-0.032043467,0
1.125,-0.028532241,0
1.126,-0.026936229,0
1.127,-0.027574634,0
1.128,-0.030128253,0
1.129,-0.034277884,0
1.13,-0.039704325,0
1.131,-0.045449969,0
1.132,-0.050876409,0
1.133,-0.055983648,0
1.134,-0.059814077,0
1.135,-0.062367696,0
1.136,-0.063006101,0
1.137,-0.061729291,0
1.138,-0.05885647,0
1.139,-0.054387636,0
1.14,-0.048961195,0
1.141,-0.042896349,0
1.142,-0.036512301,0
1.143,-0.03108586,0
1.144,-0.026617027,0
1.145,-0.023425003,0
1.146,-0.022148193,0
1.147,-0.022786598,0
1.148,-0.025021015,0
1.149,-0.028532241,0
1.15,-0.032681872,0
1.151,-0.037150706,0
1.152,-0.04161954,0
1.153,-0.045130766,0
1.154,-0.047684385,0
1.155,-0.048641993,0
1.156,-0.047684385,0
1.157,-0.044811564,0
1.158,-0.04034273,0
1.159,-0.034277884,0
1.16,-0.027893836,0
1.161,-0.020871383,0
1.162,-0.014487335,0
1.163,-0.009060894,0
1.164,-0.004592061,0
1.165,-0.001719239,0
1.166,-0.000442429,0
1.167,-0.001080834,0
1.168,-0.003315251,0
1.169,-0.00714568,0
1.17,-0.011614513,0
1.171,-0.016083347,0
1.172,-0.020552181,0
1.173,-0.023744205,0
1.174,-0.025659419,0
1.175,-0.025659419,0
1.176,-0.024063407,0
1.177,-0.020552181,0
1.178,-0.01512574,0
1.179,-0.008741692,0
1.18,-0.001400037,0
1.181,0.005941619,0
1.182,0.012644869,0
1.183,0.019028917,0
1.184,0.023497751,0
1.185,0.026689775,0
1.186,0.02732818,0
1.187,0.026370573,0
1.188,0.023497751,0
1.189,0.01934812,0
1.19,0.014240881,0
1.191,0.00881444,0
1.192,0.004026404,0
1.193,-0.000442429,0
1.194,-0.003315251,0
1.195,-0.004592061,0
1.196,-0.003634453,0
1.197,-0.000442429,0
1.198,0.004345607,0
1.199,0.010729655,0
1.2,0.018390513,0
1.201,0.026689775,0
1.202,0.034669835,0
1.203,0.041692288,0
1.204,0.047437932,0
1.205,0.051587563,0
1.206,0.05382198,0
1.207,0.054141182,0
1.208,0.05254517,0
1.209,0.049672348,0
1.21,0.045522717,0
1.211,0.040734681,0
1.212,0.035946645,0
1.213,0.031797014,0
1.214,0.02860499,0
1.215,0.026689775,0
1.216,0.026689775,0
1.217,0.028285787,0
1.218,0.031477811,0
1.219,0.036265847,0
1.22,0.041692288,0
1.221,0.047437932,0
1.222,0.052864372,0
1.223,0.057652409,0
1.224,0.060844433,0
1.225,0.063078849,0
1.226,0.063398052,0
1.227,0.062121242,0
1.228,0.059567623,0
1.229,0.055737194,0
1.23,0.05126836,0
1.231,0.046480324,0
1.232,0.042330693,0
1.233,0.038819467,0
1.234,0.036904252,0
1.235,0.036265847,0
1.236,0.037861859,0
1.237,0.041053883,0
1.238,0.045522717,0
1.239,0.050629956,0
1.24,0.056056397,0
1.241,0.060844433,0
1.242,0.064994064,0
1.243,0.067547683,0
1.244,0.068824493,0
1.245,0.067866886,0
1.246,0.064994064,0
1.247,0.059886825,0
1.248,0.052864372,0
1.249,0.04456511,0
1.25,0.034989038,0
1.251,0.025732168,0
1.252,0.016475298,0
1.253,0.008176036,0
1.254,0.001791988,0
1.255,-0.002996049,0
1.256,-0.00586887,0
1.257,-0.006507275,0
1.258,-0.005230465,0
1.259,-0.002357644,0
1.26,0.001791988,0
1.261,0.006260821,0
1.262,0.010410453,0
1.263,0.014240881,0
1.264,0.016475298,0
1.265,0.017113703,0
1.266,0.016156096,0
1.267,0.012964072,0
1.268,0.008495238,0
1.269,0.003068797,0
1.27,-0.003315251,0
1.271,-0.010018501,0
1.272,-0.016083347,0
1.273,-0.021190586,0
1.274,-0.025340217,0
1.275,-0.027574634,0
1.276,-0.028532241,0
1.277,-0.027574634,0
1.278,-0.025659419,0
1.279,-0.022467395,0
1.28,-0.018636966,0
1.281,-0.014806538,0
1.282,-0.011614513,0
1.283,-0.009699299,0
1.284,-0.009060894,0
1.285,-0.010656906,0
1.286,-0.014168133,0
1.287,-0.019275371,0
1.288,-0.025978622,0
1.289,-0.03363948,0
1.29,-0.04161954,0
1.291,-0.049280397,0
1.292,-0.05630285,0
1.293,-0.062367696,0
1.294,-0.06683653,0
1.295,-0.069390149,0
1.296,-0.070347756,0
1.297,-0.069070947,0
1.298,-0.066198125,0
1.299,-0.061729291,0
1.3,-0.056941255,0
1.301,-0.051834017,0
1.302,-0.047365183,0
1.303,-0.044173159,0
1.304,-0.042257944,0
1.305,-0.042577147,0
1.306,-0.044811564,0
1.307,-0.048961195,0
1.308,-0.055026041,0
1.309,-0.062048494,0
1.31,-0.070028554,0
1.311,-0.077689412,0
1.312,-0.084711864,0
1.313,-0.09077671,0
1.314,-0.095564746,0
1.315,-0.098437568,0
1.316,-0.099075973,0
1.317,-0.097799163,0
1.318,-0.094607139,0
1.319,-0.090138305,0
1.32,-0.085031067,0
1.321,-0.079604626,0
1.322,-0.07481659,0
1.323,-0.071305363,0
1.324,-0.068751744,0
1.325,-0.067794137,0
1.326,-0.068751744,0
1.327,-0.071305363,0
1.328,-0.075454995,0
1.329,-0.080562233,0
1.33,-0.086307876,0
1.331,-0.09205352,0
1.332,-0.097160758,0
1.333,-0.10131039,0
1.334,-0.104183211,0
1.335,-0.104821616,0
1.336,-0.103864009,0
1.337,-0.100991187,0
1.338,-0.096522353,0
1.339,-0.091095913,0
1.34,-0.085031067,0
1.341,-0.078966221,0
1.342,-0.07353978,0
1.343,-0.069070947,0
1.344,-0.066517327,0
1.345,-0.06555972,0
1.346,-0.066517327,0
1.347,-0.069390149,0
1.348,-0.074178185,0
1.349,-0.079923828,0
1.35,-0.086307876,0
1.351,-0.092691925,0
1.352,-0.098437568,0
1.353,-0.102906402,0
1.354,-0.106098426,0
1.355,-0.107375235,0
1.356,-0.106417628,0
1.357,-0.103864009,0
1.358,-0.099714378,0
1.359,-0.094287937,0
1.36,-0.088223091,0
1.361,-0.082158245,0
1.362,-0.076731804,0
1.363,-0.072262971,0
1.364,-0.069070947,0
1.365,-0.067794137,0
1.366,-0.068113339,0
1.367,-0.070347756,0
1.368,-0.074178185,0
1.369,-0.078966221,0
1.37,-0.084392662,0
1.371,-0.089499901,0
1.372,-0.094287937,0
1.373,-0.098118365,0
1.374,-0.100671985,0
1.375,-0.101629592,0
1.376,-0.100671985,0
1.377,-0.098118365,0
1.378,-0.093649532,0
1.379,-0.088223091,0
1.38,-0.082158245,0
1.381,-0.075774197,0
1.382,-0.070028554,0
1.383,-0.065240518,0
1.384,-0.062048494,0
1.385,-0.060771684,0
1.386,-0.061410089,0
1.387,-0.063644506,0
1.388,-0.067474935,0
1.389,-0.072262971,0
1.39,-0.077370209,0
1.391,-0.08279665,0
1.392,-0.087265484,0
1.393,-0.09077671,0
1.394,-0.092372722,0
1.395,-0.092372722,0
1.396,-0.090457508,0
1.397,-0.086946281,0
1.398,-0.081839043,0
1.399,-0.075774197,0
1.4,-0.069390149,0
1.401,-0.063644506,0
1.402,-0.058218065,0
1.403,-0.054068433,0
1.404,-0.051514814,0
1.405,-0.050238005,0
1.406,-0.050557207,0
1.407,-0.052472421,0
1.408,-0.055983648,0
1.409,-0.060452482,0
1.41,-0.06555972,0
1.411,-0.070347756,0
1.412,-0.07481659,0
1.413,-0.078008614,0
1.414,-0.079604626,0
1.415,-0.079285424,0
1.416,-0.077051007,0
1.417,-0.073220578,0
1.418,-0.068113339,0
1.419,-0.061729291,0
1.42,-0.055345243,0
1.421,-0.048961195,0
1.422,-0.043215552,0
1.423,-0.038746718,0
1.424,-0.036193099,0
1.425,-0.035554694,0
1.426,-0.036512301,0
1.427,-0.039704325,0
1.428,-0.044173159,0
1.429,-0.049280397,0
1.43,-0.054706838,0
1.431,-0.059494874,0
1.432,-0.063644506,0
1.433,-0.066198125,0
1.434,-0.067155732,0
1.435,-0.066198125,0
1.436,-0.063644506,0
1.437,-0.059175672,0
1.438,-0.053749231,0
1.439,-0.047365183,0
1.44,-0.04034273,0
1.441,-0.033958682,0
1.442,-0.027893836,0
1.443,-0.023425003,0
1.444,-0.020552181,0
1.445,-0.019913776,0
1.446,-0.021509788,0
1.447,-0.025021015,0
1.448,-0.030128253,0
1.449,-0.036512301,0
1.45,-0.043215552,0
1.451,-0.049918802,0
1.452,-0.055664446,0
1.453,-0.060452482,0
1.454,-0.063644506,0
1.455,-0.064602113,0
1.456,-0.063644506,0
1.457,-0.060452482,0
1.458,-0.055983648,0
1.459,-0.050238005,0
1.46,-0.043853956,0
1.461,-0.037789111,0
1.462,-0.032043467,0
1.463,-0.027893836,0
1.464,-0.025021015,0
1.465,-0.02438261,0
1.466,-0.025659419,0
1.467,-0.028851443,0
1.468,-0.033320277,0
1.469,-0.038746718,0
1.47,-0.044811564,0
1.471,-0.050557207,0
1.472,-0.055345243,0
1.473,-0.059494874,0
1.474,-0.061729291,0
1.475,-0.062048494,0
1.476,-0.060771684,0
1.477,-0.05757966,0
1.478,-0.052791624,0
1.479,-0.047045981,0
1.48,-0.041300337,0
1.481,-0.035235492,0
1.482,-0.030128253,0
1.483,-0.025978622,0
1.484,-0.023425003,0
1.485,-0.022467395,0
1.486,-0.023425003,0
1.487,-0.026297824,0
1.488,-0.030447455,0
1.489,-0.035554694,0
1.49,-0.041300337,0
1.491,-0.047045981,0
1.492,-0.052472421,0
1.493,-0.056622053,0
1.494,-0.059175672,0
1.495,-0.060133279,0
1.496,-0.059175672,0
1.497,-0.056622053,0
1.498,-0.052791624,0
1.499,-0.048003588,0
1.5,-0.042896349,0
1.501,-0.038108313,0
1.502,-0.033958682,0
1.503,-0.030766658,0
1.504,-0.029170646,0
1.505,-0.029170646,0
1.506,-0.03108586,0
1.507,-0.034277884,0
1.508,-0.038427516,0
1.509,-0.043215552,0
1.51,-0.04832279,0
1.511,-0.053110826,0
1.512,-0.056941255,0
1.513,-0.059175672,0
1.514,-0.060133279,0
1.515,-0.059175672,0
1.516,-0.05630285,0
1.517,-0.052153219,0
1.518,-0.046407576,0
1.519,-0.040023528,0
1.52,-0.033001075,0
1.521,-0.026617027,0
1.522,-0.021190586,0
1.523,-0.017040954,0
1.524,-0.014487335,0
1.525,-0.014168133,0
1.526,-0.015764145,0
1.527,-0.019275371,0
1.528,-0.02438261,0
1.529,-0.030766658,0
1.53,-0.037150706,0
1.531,-0.043853956,0
1.532,-0.0495996,0
1.533,-0.054068433,0
1.534,-0.056622053,0
1.535,-0.05757966,0
1.536,-0.05630285,0
1.537,-0.053430029,0
1.538,-0.048961195,0
1.539,-0.043853956,0
1.54,-0.038427516,0
1.541,-0.033001075,0
1.542,-0.028213039,0
1.543,-0.024701812,0
1.544,-0.022467395,0
1.545,-0.022148193,0
1.546,-0.0231058,0
1.547,-0.025340217,0
1.548,-0.028851443,0
1.549,-0.032681872,0
1.55,-0.036831504,0
1.551,-0.040661932,0
1.552,-0.044173159,0
1.553,-0.046407576,0
1.554,-0.047684385,0
1.555,-0.047045981,0
1.556,-0.045130766,0
1.557,-0.041300337,0
1.558,-0.036512301,0
1.559,-0.03108586,0
1.56,-0.025659419,0
1.561,-0.020871383,0
1.562,-0.017040954,0
1.563,-0.014168133,0
1.564,-0.013210526,0
1.565,-0.01384893,0
1.566,-0.016083347,0
1.567,-0.019913776,0
1.568,-0.025021015,0
1.569,-0.030766658,0
1.57,-0.036831504,0
1.571,-0.042577147,0
1.572,-0.047365183,0
1.573,-0.050557207,0
1.574,-0.051834017,0
1.575,-0.051195612,0
1.576,-0.048961195,0
1.577,-0.044811564,0
1.578,-0.039704325,0
1.579,-0.033958682,0
1.58,-0.028213039,0
1.581,-0.0231058,0
1.582,-0.018636966,0
1.583,-0.015444942,0
1.584,-0.01384893,0
1.585,-0.014168133,0
1.586,-0.015764145,0
1.587,-0.019275371,0
1.588,-0.024063407,0
1.589,-0.029170646,0
1.59,-0.034597087,0
1.591,-0.039385123,0
1.592,-0.043534754,0
1.593,-0.046088373,0
1.594,-0.047045981,0
1.595,-0.046407576,0
1.596,-0.043853956,0
1.597,-0.039704325,0
1.598,-0.034597087,0
1.599,-0.028851443,0
1.6,-0.0231058,0
1.601,-0.018317764,0
1.602,-0.014168133,0
1.603,-0.011614513,0
1.604,-0.010337704,0
1.605,-0.011295311,0
1.606,-0.013529728,0
1.607,-0.017679359,0
1.608,-0.022467395,0
1.609,-0.028213039,0
1.61,-0.033958682,0
1.611,-0.03906592,0
1.612,-0.043215552,0
1.613,-0.046088373,0
1.614,-0.047045981,0
1.615,-0.046407576,0
1.616,-0.043534754,0
1.617,-0.03906592,0
1.618,-0.033958682,0
1.619,-0.028213039,0
1.62,-0.022148193,0
1.621,-0.017040954,0
1.622,-0.012891323,0
1.623,-0.010337704,0
1.624,-0.009060894,0
1.625,-0.009380097,0
1.626,-0.011295311,0
1.627,-0.014806538,0
1.628,-0.019275371,0
1.629,-0.02438261,0
1.63,-0.029489848,0
1.631,-0.033958682,0
1.632,-0.037469908,0
1.633,-0.039704325,0
1.634,-0.040661932,0
1.635,-0.039385123,0
1.636,-0.036512301,0
1.637,-0.032043467,0
1.638,-0.026617027,0
1.639,-0.020552181,0
1.64,-0.01512574,0
1.641,-0.010018501,0
1.642,-0.006507275,0
1.643,-0.004272858,0
1.644,-0.003953656,0
1.645,-0.005549668,0
1.646,-0.009060894,0
1.647,-0.014168133,0
1.648,-0.020232978,0
1.649,-0.026617027,0
1.65,-0.033001075,0
1.651,-0.038746718,0
1.652,-0.043215552,0
1.653,-0.046088373,0
1.654,-0.047365183,0
1.655,-0.046088373,0
1.656,-0.042896349,0
1.657,-0.037789111,0
1.658,-0.031405063,0
1.659,-0.023744205,0
1.66,-0.01640255,0
1.661,-0.009060894,0
1.662,-0.002996049,0
1.663,0.001791988,0
1.664,0.004984012,0
1.665,0.006260821,0
1.666,0.005622416,0
1.667,0.003707202,0
1.668,0.00083438,0
1.669,-0.002676846,0
1.67,-0.006188073,0
1.671,-0.009699299,0
1.672,-0.012572121,0
1.673,-0.014487335,0
1.674,-0.014806538,0
1.675,-0.013529728,0
1.676,-0.010656906,0
1.677,-0.006507275,0
1.678,-0.001400037,0
1.679,0.004026404,0
1.68,0.009133643,0
1.681,0.013602477,0
1.682,0.017113703,0
1.683,0.018709715,0
1.684,0.018390513,0
1.685,0.016156096,0
1.686,0.012006465,0
1.687,0.006899226,0
1.688,0.00083438,0
1.689,-0.00586887,0
1.69,-0.012252918,0
1.691,-0.018317764,0
1.692,-0.022786598,0
1.693,-0.025978622,0
1.694,-0.027255431,0
1.695,-0.026617027,0
1.696,-0.024063407,0
1.697,-0.019594574,0
1.698,-0.01384893,0
1.699,-0.00714568,0
1.7,-0.000442429,0
1.701,0.006260821,0
1.702,0.01136806,0
1.703,0.015836893,0
1.704,0.018390513,0
1.705,0.019667322,0
1.706,0.01934812,0
1.707,0.017432905,0
1.708,0.014879286,0
1.709,0.011687262,0
1.71,0.008176036,0
1.711,0.005622416,0
1.712,0.003707202,0
1.713,0.002430392,0
1.714,0.003068797,0
1.715,0.004984012,0
1.716,0.007856833,0
1.717,0.012006465,0
1.718,0.016794501,0
1.719,0.021263334,0
1.72,0.025093763,0
1.721,0.027647382,0
1.722,0.028924192,0
1.723,0.028285787,0
1.724,0.025412966,0
1.725,0.020624929,0
1.726,0.013921679,0
1.727,0.006260821,0
1.728,-0.002676846,0
1.729,-0.011614513,0
1.73,-0.020232978,0
1.731,-0.027893836,0
1.732,-0.033958682,0
1.733,-0.038108313,0
1.734,-0.040023528,0
1.735,-0.040023528,0
1.736,-0.037789111,0
1.737,-0.03363948,0
1.738,-0.028213039,0
1.739,-0.022148193,0
1.74,-0.015764145,0
1.741,-0.010018501,0
1.742,-0.005230465,0
1.743,-0.001719239,0
1.744,-0.000123227,0
1.745,-0.000123227,0
1.746,-0.002038441,0
1.747,-0.004911263,0
1.748,-0.009060894,0
1.749,-0.013529728,0
1.75,-0.017998562,0
1.751,-0.021509788,0
1.752,-0.023744205,0
1.753,-0.02438261,0
1.754,-0.0231058,0
1.755,-0.019594574,0
1.756,-0.014487335,0
1.757,-0.007784085,0
1.758,-0.000442429,0
1.759,0.007218428,0
1.76,0.014240881,0
1.761,0.020305727,0
1.762,0.024455358,0
1.763,0.026370573,0
1.764,0.025412966,0
1.765,0.021582537,0
1.766,0.015517691,0
1.767,0.007218428,0
1.768,-0.002357644,0
1.769,-0.013210526,0
1.77,-0.024701812,0
1.771,-0.035554694,0
1.772,-0.045449969,0
1.773,-0.053749231,0
1.774,-0.059494874,0
1.775,-0.062686898,0
1.776,-0.063006101,0
1.777,-0.060452482,0
1.778,-0.055345243,0
1.779,-0.047365183,0
1.78,-0.037150706,0
1.781,-0.025021015,0
1.782,-0.010976109,0
1.783,0.004345607,0
1.784,0.020624929,0
1.785,0.038500264,0
1.786,0.057333206,0
1.787,0.078081363,0
1.788,0.101063936,0
1.789,0.126919331,0
1.79,0.156605154,0
1.791,0.190759812,0
1.792,0.229064101,0
1.793,0.27279483,0
1.794,0.321632798,0
1.795,0.375578005,0
1.796,0.433992045,0
1.797,0.495917312,0
1.798,0.560076995,0
1.799,0.624555881,0
1.8,0.687757958,0
1.801,0.747448808,0
1.802,0.802351621,0
1.803,0.850231982,0
1.804,0.890770688,0
1.805,0.922052524,0
1.806,0.943758287,0
1.807,0.955887979,0
1.808,0.957483991,0
1.809,0.949184728,0
1.81,0.930670989,0
1.811,0.903219582,0
1.812,0.86714971,0
1.813,0.823099778,0
1.814,0.772665798,0
1.815,0.716486174,0
1.816,0.65615692,0
1.817,0.592635641,74.90636704
1.818,0.527199148,74.90636704
1.819,0.460485845,74.90636704
1.82,0.39345334,74.90636704
1.821,0.327059239,74.90636704
1.822,0.261622746,74.90636704
1.823,0.197463062,74.90636704
1.824,0.134580188,74.90636704
1.825,0.073612529,74.90636704
1.826,0.014879286,74.90636704
1.827,-0.040661932,74.90636704
1.828,-0.093330329,74.90636704
1.829,-0.141849095,74.90636704
1.83,-0.185579825,74.90636704
1.831,-0.223884113,74.90636704
1.832,-0.256123556,74.90636704
1.833,-0.281340546,74.90636704
1.834,-0.300173488,74.90636704
1.835,-0.311983977,74.90636704
1.836,-0.317410418,74.90636704
1.837,-0.317091216,74.90636704
1.838,-0.311345573,74.90636704
1.839,-0.301131096,74.90636704
1.84,-0.287405392,74.90636704
1.841,-0.270487665,74.90636704
1.842,-0.251973925,74.90636704
1.843,-0.231864174,74.90636704
1.844,-0.211116017,74.90636704
1.845,-0.190687063,74.90636704
1.846,-0.170577312,74.90636704
1.847,-0.151425167,74.90636704
1.848,-0.13323063,74.90636704
1.849,-0.1159937,74.90636704
1.85,-0.099714378,74.90636704
1.851,-0.08407346,74.90636704
1.852,-0.069390149,74.90636704
1.853,-0.055345243,74.90636704
1.854,-0.042577147,74.90636704
1.855,-0.030766658,74.90636704
1.856,-0.020232978,74.90636704
1.857,-0.010976109,74.90636704
1.858,-0.002996049,74.90636704
1.859,0.003388,74.90636704
1.86,0.007856833,74.90636704
1.861,0.010729655,74.90636704
1.862,0.01136806,74.90636704
1.863,0.01009125,74.90636704
1.864,0.006580024,74.90636704
1.865,0.001153583,74.90636704
1.866,-0.005549668,74.90636704
1.867,-0.013210526,74.90636704
1.868,-0.020871383,74.90636704
1.869,-0.028213039,74.90636704
1.87,-0.034277884,74.90636704
1.871,-0.038746718,74.90636704
1.872,-0.041300337,74.90636704
1.873,-0.04161954,74.90636704
1.874,-0.039704325,74.90636704
1.875,-0.035873896,74.90636704
1.876,-0.029809051,74.90636704
1.877,-0.022467395,74.90636704
1.878,-0.014487335,74.90636704
1.879,-0.006826477,74.90636704
1.88,0.000515178,74.90636704
1.881,0.006899226,74.90636704
1.882,0.011687262,74.90636704
1.883,0.014879286,74.90636704
1.884,0.016156096,74.90636704
1.885,0.015198489,74.90636704
1.886,0.012644869,74.90636704
1.887,0.00881444,74.90636704
1.888,0.004664809,74.90636704
1.889,-0.000442429,74.90636704
1.89,-0.004911263,74.90636704
1.891,-0.008422489,74.90636704
1.892,-0.010976109,74.90636704
1.893,-0.011295311,74.90636704
1.894,-0.010018501,74.90636704
1.895,-0.006507275,74.90636704
1.896,-0.001400037,74.90636704
1.897,0.004664809,74.90636704
1.898,0.011687262,74.90636704
1.899,0.019028917,74.90636704
1.9,0.02605137,74.90636704
1.901,0.032116216,74.90636704
1.902,0.03658505,74.90636704
1.903,0.039138669,74.90636704
1.904,0.039777074,74.90636704
1.905,0.038181062,74.90636704
1.906,0.034989038,74.90636704
1.907,0.030520204,74.90636704
1.908,0.025412966,74.90636704
1.909,0.019667322,74.90636704
1.91,0.014560084,74.90636704
1.911,0.01009125,74.90636704
1.912,0.007218428,74.90636704
1.913,0.005622416,74.90636704
1.914,0.006260821,74.90636704
1.915,0.008176036,74.90636704
1.916,0.012325667,74.90636704
1.917,0.017752108,74.90636704
1.918,0.023816954,74.90636704
1.919,0.029881799,74.90636704
1.92,0.036265847,74.90636704
1.921,0.041692288,74.90636704
1.922,0.04584192,74.90636704
1.923,0.048395539,74.90636704
1.924,0.049353146,74.90636704
1.925,0.048395539,74.90636704
1.926,0.045203515,74.90636704
1.927,0.041053883,74.90636704
1.928,0.035946645,74.90636704
1.929,0.030839406,74.90636704
1.93,0.025732168,74.90636704
1.931,0.021582537,74.90636704
1.932,0.018390513,74.90636704
1.933,0.016794501,74.90636704
1.934,0.016475298,74.90636704
1.935,0.017752108,74.90636704
1.936,0.020624929,74.90636704
1.937,0.024455358,74.90636704
1.938,0.02860499,74.90636704
1.939,0.033073823,74.90636704
1.94,0.036904252,74.90636704
1.941,0.040415479,74.90636704
1.942,0.042649895,74.90636704
1.943,0.043926705,74.90636704
1.944,0.043926705,74.90636704
1.945,0.042330693,74.90636704
1.946,0.039457871,74.90636704
1.947,0.035627443,74.90636704
1.948,0.031477811,74.90636704
1.949,0.02732818,74.90636704
1.95,0.023816954,74.90636704
1.951,0.020944132,74.90636704
1.952,0.019667322,74.90636704
1.953,0.020305727,74.90636704
1.954,0.022540144,74.90636704
1.955,0.026370573,74.90636704
1.956,0.031797014,74.90636704
1.957,0.038181062,74.90636704
1.958,0.04456511,74.90636704
1.959,0.050310753,74.90636704
1.96,0.055417992,74.90636704
1.961,0.058929218,74.90636704
1.962,0.060844433,74.90636704
1.963,0.060844433,74.90636704
1.964,0.058929218,74.90636704
1.965,0.055417992,74.90636704
1.966,0.050629956,74.90636704
1.967,0.044884312,74.90636704
1.968,0.038819467,74.90636704
1.969,0.032754621,74.90636704
1.97,0.027647382,74.90636704
1.971,0.023816954,74.90636704
1.972,0.021582537,74.90636704
1.973,0.021582537,74.90636704
1.974,0.023816954,74.90636704
1.975,0.027966585,74.90636704
1.976,0.034031431,74.90636704
1.977,0.040734681,74.90636704
1.978,0.047757134,74.90636704
1.979,0.054779587,74.90636704
1.98,0.060844433,74.90636704
1.981,0.066270874,74.90636704
1.982,0.070420505,74.90636704
1.983,0.072654922,74.90636704
1.984,0.072974124,74.90636704
1.985,0.07105891,74.90636704
1.986,0.067547683,74.90636704
1.987,0.062759647,74.90636704
1.988,0.057333206,74.90636704
1.989,0.051587563,74.90636704
1.99,0.046799527,74.90636704
1.991,0.042969098,74.90636704
1.992,0.040415479,74.90636704
1.993,0.040096276,74.90636704
1.994,0.042011491,74.90636704
1.995,0.045522717,74.90636704
1.996,0.050629956,74.90636704
1.997,0.057333206,74.90636704
1.998,0.064674862,74.90636704
1.999,0.072654922,74.90636704
2,0.079677375,74.90636704
2.001,0.08574222,74.90636704
2.002,0.090211054,74.90636704
2.003,0.093083876,74.90636704
2.004,0.09372228,74.90636704
2.005,0.093083876,74.90636704
2.006,0.090530256,74.90636704
2.007,0.087338232,74.90636704
2.008,0.083188601,74.90636704
2.009,0.079358172,74.90636704
2.01,0.075846946,74.90636704
2.011,0.073612529,74.90636704
2.012,0.072335719,74.90636704
2.013,0.072974124,74.90636704
2.014,0.075208541,74.90636704
2.015,0.07903897,74.90636704
2.016,0.084146208,74.90636704
2.017,0.089891852,74.90636704
2.018,0.095956697,74.90636704
2.019,0.102021543,74.90636704
2.02,0.107447984,74.90636704
2.021,0.111278413,74.90636704
2.022,0.113832032,74.90636704
2.023,0.114151234,74.90636704
2.024,0.112874425,74.90636704
2.025,0.109363198,74.90636704
2.026,0.104575162,74.90636704
2.027,0.098829519,74.90636704
2.028,0.092445471,74.90636704
2.029,0.086380625,74.90636704
2.03,0.080634982,74.90636704
2.031,0.076166148,74.90636704
2.032,0.073293326,74.90636704
2.033,0.072335719,74.90636704
2.034,0.073612529,74.90636704
2.035,0.076485351,74.90636704
2.036,0.080954184,74.90636704
2.037,0.086699828,74.90636704
2.038,0.092764673,74.90636704
2.039,0.098510317,74.90636704
2.04,0.103936757,74.90636704
2.041,0.107767186,74.90636704
2.042,0.110320806,74.90636704
2.043,0.11095921,74.90636704
2.044,0.109363198,74.90636704
2.045,0.105851972,74.90636704
2.046,0.100425531,74.90636704
2.047,0.094041483,74.90636704
2.048,0.087338232,74.90636704
2.049,0.080315779,74.90636704
2.05,0.073931731,74.90636704
2.051,0.06850529,74.90636704
2.052,0.064036457,74.90636704
2.053,0.061482837,74.90636704
2.054,0.06052523,74.90636704
2.055,0.060844433,74.90636704
2.056,0.062440445,74.90636704
2.057,0.064994064,74.90636704
2.058,0.067547683,74.90636704
2.059,0.070420505,74.90636704
2.06,0.072335719,74.90636704
2.061,0.073293326,74.90636704
2.062,0.072654922,74.90636704
2.063,0.070420505,74.90636704
2.064,0.066270874,74.90636704
2.065,0.06052523,74.90636704
2.066,0.053502777,74.90636704
2.067,0.04584192,74.90636704
2.068,0.038181062,74.90636704
2.069,0.030839406,74.90636704
2.07,0.024455358,74.90636704
2.071,0.01934812,74.90636704
2.072,0.015517691,74.90636704
2.073,0.013921679,74.90636704
2.074,0.014240881,74.90636704
2.075,0.016475298,74.90636704
2.076,0.019986525,74.90636704
2.077,0.024774561,74.90636704
2.078,0.029881799,74.90636704
2.079,0.034669835,74.90636704
2.08,0.038500264,74.90636704
2.081,0.040734681,74.90636704
2.082,0.041053883,74.90636704
2.083,0.039457871,74.90636704
2.084,0.035946645,74.90636704
2.085,0.029881799,74.90636704
2.086,0.022540144,74.90636704
2.087,0.013602477,74.90636704
2.088,0.004345607,74.90636704
2.089,-0.004911263,74.90636704
2.09,-0.013210526,74.90636704
2.091,-0.020552181,74.90636704
2.092,-0.026297824,74.90636704
2.093,-0.030128253,74.90636704
2.094,-0.031724265,74.90636704
2.095,-0.031724265,74.90636704
2.096,-0.029809051,74.90636704
2.097,-0.026936229,74.90636704
2.098,-0.023425003,74.90636704
2.099,-0.019594574,74.90636704
2.1,-0.01640255,74.90636704
2.101,-0.01384893,74.90636704
2.102,-0.012252918,74.90636704
2.103,-0.012252918,74.90636704
2.104,-0.01384893,74.90636704
2.105,-0.016721752,74.90636704
2.106,-0.021190586,74.90636704
2.107,-0.026936229,74.90636704
2.108,-0.032681872,74.90636704
2.109,-0.038427516,74.90636704
2.11,-0.043853956,74.90636704
2.111,-0.048003588,74.90636704
2.112,-0.051195612,74.90636704
2.113,-0.052472421,74.90636704
2.114,-0.051834017,74.90636704
2.115,-0.0495996,74.90636704
2.116,-0.046407576,74.90636704
2.117,-0.042257944,74.90636704
2.118,-0.038108313,74.90636704
2.119,-0.033958682,74.90636704
2.12,-0.03108586,74.90636704
2.121,-0.029170646,74.90636704
2.122,-0.028851443,74.90636704
2.123,-0.030128253,74.90636704
2.124,-0.03363948,74.90636704
2.125,-0.038427516,74.90636704
2.126,-0.044492361,74.90636704
2.127,-0.051195612,74.90636704
2.128,-0.058218065,74.90636704
2.129,-0.064602113,74.90636704
2.13,-0.070347756,74.90636704
2.131,-0.074497387,74.90636704
2.132,-0.077051007,74.90636704
2.133,-0.077370209,74.90636704
2.134,-0.076093399,74.90636704
2.135,-0.073220578,74.90636704
2.136,-0.068751744,74.90636704
2.137,-0.063325303,74.90636704
2.138,-0.057898862,74.90636704
2.139,-0.052472421,74.90636704
2.14,-0.047684385,74.90636704
2.141,-0.044173159,74.90636704
2.142,-0.042577147,74.90636704
2.143,-0.042896349,74.90636704
2.144,-0.045449969,74.90636704
2.145,-0.049280397,74.90636704
2.146,-0.054706838,74.90636704
2.147,-0.060771684,74.90636704
2.148,-0.06683653,74.90636704
2.149,-0.072582173,74.90636704
2.15,-0.077370209,74.90636704
2.151,-0.081200638,74.90636704
2.152,-0.08279665,74.90636704
2.153,-0.08279665,74.90636704
2.154,-0.080562233,74.90636704
2.155,-0.076731804,74.90636704
2.156,-0.071305363,74.90636704
2.157,-0.065240518,74.90636704
2.158,-0.058537267,74.90636704
2.159,-0.052153219,74.90636704
2.16,-0.046407576,74.90636704
2.161,-0.041938742,74.90636704
2.162,-0.039385123,74.90636704
2.163,-0.038746718,74.90636704
2.164,-0.040023528,74.90636704
2.165,-0.042896349,74.90636704
2.166,-0.047365183,74.90636704
2.167,-0.052791624,74.90636704
2.168,-0.05885647,74.90636704
2.169,-0.064602113,74.90636704
2.17,-0.069709351,74.90636704
2.171,-0.07353978,74.90636704
2.172,-0.075774197,74.90636704
2.173,-0.075774197,74.90636704
2.174,-0.074178185,74.90636704
2.175,-0.070347756,74.90636704
2.176,-0.06555972,74.90636704
2.177,-0.059814077,74.90636704
2.178,-0.053749231,74.90636704
2.179,-0.047684385,74.90636704
2.18,-0.042577147,74.90636704
2.181,-0.03906592,74.90636704
2.182,-0.036831504,74.90636704
2.183,-0.036831504,74.90636704
2.184,-0.038746718,74.90636704
2.185,-0.042577147,74.90636704
2.186,-0.047365183,74.90636704
2.187,-0.053430029,74.90636704
2.188,-0.059494874,74.90636704
2.189,-0.065240518,74.90636704
2.19,-0.070028554,74.90636704
2.191,-0.07353978,74.90636704
2.192,-0.075774197,74.90636704
2.193,-0.075774197,74.90636704
2.194,-0.074178185,74.90636704
2.195,-0.070666959,74.90636704
2.196,-0.06555972,74.90636704
2.197,-0.059814077,74.90636704
2.198,-0.053749231,74.90636704
2.199,-0.047684385,74.90636704
2.2,-0.042577147,74.90636704
2.201,-0.038746718,74.90636704
2.202,-0.036193099,74.90636704
2.203,-0.035554694,74.90636704
2.204,-0.036512301,74.90636704
2.205,-0.03906592,74.90636704
2.206,-0.042577147,74.90636704
2.207,-0.047045981,74.90636704
2.208,-0.051195612,74.90636704
2.209,-0.055345243,74.90636704
2.21,-0.058537267,74.90636704
2.211,-0.060452482,74.90636704
2.212,-0.061090886,74.90636704
2.213,-0.059814077,74.90636704
2.214,-0.056941255,74.90636704
2.215,-0.052472421,74.90636704
2.216,-0.046726778,74.90636704
2.217,-0.040023528,74.90636704
2.218,-0.03363948,74.90636704
2.219,-0.027893836,74.90636704
2.22,-0.0231058,74.90636704
2.221,-0.019913776,74.90636704
2.222,-0.018636966,74.90636704
2.223,-0.019275371,74.90636704
2.224,-0.021509788,74.90636704
2.225,-0.025659419,74.90636704
2.226,-0.030766658,74.90636704
2.227,-0.036831504,74.90636704
2.228,-0.043215552,74.90636704
2.229,-0.0495996,74.90636704
2.23,-0.054706838,74.90636704
2.231,-0.058218065,74.90636704
2.232,-0.060133279,74.90636704
2.233,-0.059814077,74.90636704
2.234,-0.05757966,74.90636704
2.235,-0.053430029,74.90636704
2.236,-0.048003588,74.90636704
2.237,-0.041938742,74.90636704
2.238,-0.035554694,74.90636704
2.239,-0.029489848,74.90636704
2.24,-0.02438261,74.90636704
2.241,-0.020871383,74.90636704
2.242,-0.018956169,74.90636704
2.243,-0.018636966,74.90636704
2.244,-0.020232978,74.90636704
2.245,-0.023744205,74.90636704
2.246,-0.028213039,74.90636704
2.247,-0.033320277,74.90636704
2.248,-0.038427516,74.90636704
2.249,-0.043534754,74.90636704
2.25,-0.047684385,74.90636704
2.251,-0.050876409,74.90636704
2.252,-0.052153219,74.90636704
2.253,-0.051834017,74.90636704
2.254,-0.049918802,74.90636704
2.255,-0.046088373,74.90636704
2.256,-0.041300337,74.90636704
2.257,-0.035554694,74.90636704
2.258,-0.029809051,74.90636704
2.259,-0.02438261,74.90636704
2.26,-0.020232978,74.90636704
2.261,-0.017360157,74.90636704
2.262,-0.01640255,74.90636704
2.263,-0.017360157,74.90636704
2.264,-0.019913776,74.90636704
2.265,-0.024063407,74.90636704
2.266,-0.029489848,74.90636704
2.267,-0.035554694,74.90636704
2.268,-0.041938742,74.90636704
2.269,-0.048003588,74.90636704
2.27,-0.053430029,74.90636704
2.271,-0.057260458,74.90636704
2.272,-0.059814077,74.90636704
2.273,-0.060133279,74.90636704
2.274,-0.05885647,74.90636704
2.275,-0.055664446,74.90636704
2.276,-0.051195612,74.90636704
2.277,-0.046088373,74.90636704
2.278,-0.040661932,74.90636704
2.279,-0.035873896,74.90636704
2.28,-0.031405063,74.90636704
2.281,-0.028532241,74.90636704
2.282,-0.026936229,74.90636704
2.283,-0.026936229,74.90636704
2.284,-0.028213039,74.90636704
2.285,-0.03108586,74.90636704
2.286,-0.034597087,74.90636704
2.287,-0.03906592,74.90636704
2.288,-0.043215552,74.90636704
2.289,-0.046726778,74.90636704
2.29,-0.0495996,74.90636704
2.291,-0.051514814,74.90636704
2.292,-0.051834017,74.90636704
2.293,-0.050876409,74.90636704
2.294,-0.04832279,74.90636704
2.295,-0.044492361,74.90636704
2.296,-0.039704325,74.90636704
2.297,-0.034277884,74.90636704
2.298,-0.029170646,74.90636704
2.299,-0.025340217,74.90636704
2.3,-0.022467395,74.90636704
2.301,-0.021509788,74.90636704
2.302,-0.022467395,74.90636704
2.303,-0.025340217,74.90636704
2.304,-0.029809051,74.90636704
2.305,-0.035554694,74.90636704
2.306,-0.042257944,74.90636704
2.307,-0.049280397,74.90636704
2.308,-0.05630285,74.90636704
2.309,-0.062367696,74.90636704
2.31,-0.067155732,74.90636704
2.311,-0.070347756,74.90636704
2.312,-0.071943768,74.90636704
2.313,-0.071305363,74.90636704
2.314,-0.069070947,74.90636704
2.315,-0.065240518,74.90636704
2.316,-0.060452482,74.90636704
2.317,-0.054706838,74.90636704
2.318,-0.049280397,74.90636704
2.319,-0.044492361,74.90636704
2.32,-0.040661932,74.90636704
2.321,-0.038746718,74.90636704
2.322,-0.038427516,74.90636704
2.323,-0.039704325,74.90636704
2.324,-0.042896349,74.90636704
2.325,-0.047045981,74.90636704
2.326,-0.052153219,74.90636704
2.327,-0.05757966,74.90636704
2.328,-0.063006101,74.90636704
2.329,-0.067474935,74.90636704
2.33,-0.070986161,74.90636704
2.331,-0.073220578,74.90636704
2.332,-0.073220578,74.90636704
2.333,-0.071624566,74.90636704
2.334,-0.067794137,74.90636704
2.335,-0.062686898,74.90636704
2.336,-0.056622053,74.90636704
2.337,-0.050238005,74.90636704
2.338,-0.044173159,74.90636704
2.339,-0.038746718,74.90636704
2.34,-0.034916289,74.90636704
2.341,-0.03236267,74.90636704
2.342,-0.031724265,74.90636704
2.343,-0.033320277,74.90636704
2.344,-0.036193099,74.90636704
2.345,-0.040981135,74.90636704
2.346,-0.047045981,74.90636704
2.347,-0.053430029,74.90636704
2.348,-0.059814077,74.90636704
2.349,-0.065240518,74.90636704
2.35,-0.069390149,74.90636704
2.351,-0.072262971,74.90636704
2.352,-0.072901375,74.90636704
2.353,-0.071943768,74.90636704
2.354,-0.069070947,74.90636704
2.355,-0.064602113,74.90636704
2.356,-0.059175672,74.90636704
2.357,-0.053430029,74.90636704
2.358,-0.048003588,74.90636704
2.359,-0.043215552,74.90636704
2.36,-0.039704325,74.90636704
2.361,-0.037789111,74.90636704
2.362,-0.037789111,74.90636704
2.363,-0.040023528,74.90636704
2.364,-0.043853956,74.90636704
2.365,-0.049280397,74.90636704
2.366,-0.055345243,74.90636704
2.367,-0.061410089,74.90636704
2.368,-0.067155732,74.90636704
2.369,-0.072262971,74.90636704
2.37,-0.075774197,74.90636704
2.371,-0.078008614,74.90636704
2.372,-0.078647019,74.90636704
2.373,-0.077370209,74.90636704
2.374,-0.074178185,74.90636704
2.375,-0.069709351,74.90636704
2.376,-0.063963708,74.90636704
2.377,-0.057898862,74.90636704
2.378,-0.052153219,74.90636704
2.379,-0.047045981,74.90636704
2.38,-0.043215552,74.90636704
2.381,-0.040981135,74.90636704
2.382,-0.040661932,74.90636704
2.383,-0.042257944,74.90636704
2.384,-0.045769171,74.90636704
2.385,-0.050876409,74.90636704
2.386,-0.056941255,74.90636704
2.387,-0.063644506,74.90636704
2.388,-0.069709351,74.90636704
2.389,-0.075135792,74.90636704
2.39,-0.079285424,74.90636704
2.391,-0.081839043,74.90636704
2.392,-0.082158245,74.90636704
2.393,-0.080562233,74.90636704
2.394,-0.076731804,74.90636704
2.395,-0.071305363,74.90636704
2.396,-0.064921315,74.90636704
2.397,-0.057898862,74.90636704
2.398,-0.051195612,74.90636704
2.399,-0.045130766,74.90636704
2.4,-0.04034273,74.90636704
2.401,-0.037469908,74.90636704
2.402,-0.036193099,74.90636704
2.403,-0.036831504,74.90636704
2.404,-0.039704325,74.90636704
2.405,-0.043853956,74.90636704
2.406,-0.048961195,74.90636704
2.407,-0.054706838,74.90636704
2.408,-0.060133279,74.90636704
2.409,-0.064602113,74.90636704
2.41,-0.067794137,74.90636704
2.411,-0.069709351,74.90636704
2.412,-0.069709351,74.90636704
2.413,-0.068113339,74.90636704
2.414,-0.064602113,74.90636704
2.415,-0.059814077,74.90636704
2.416,-0.054068433,74.90636704
2.417,-0.047684385,74.90636704
2.418,-0.04161954,74.90636704
2.419,-0.036193099,74.90636704
2.42,-0.032043467,74.90636704
2.421,-0.029809051,74.90636704
2.422,-0.029809051,74.90636704
2.423,-0.031724265,74.90636704
2.424,-0.035235492,74.90636704
2.425,-0.04034273,74.90636704
2.426,-0.046088373,74.90636704
2.427,-0.052472421,74.90636704
2.428,-0.05885647,74.90636704
2.429,-0.064602113,74.90636704
2.43,-0.069070947,74.90636704
2.431,-0.071943768,74.90636704
2.432,-0.072901375,74.90636704
2.433,-0.071943768,74.90636704
2.434,-0.069390149,74.90636704
2.435,-0.065240518,74.90636704
2.436,-0.060133279,74.90636704
2.437,-0.054706838,74.90636704
2.438,-0.0495996,74.90636704
2.439,-0.044811564,74.90636704
2.44,-0.041300337,74.90636704
2.441,-0.03906592,74.90636704
2.442,-0.038746718,74.90636704
2.443,-0.040023528,74.90636704
2.444,-0.042577147,74.90636704
2.445,-0.046726778,74.90636704
2.446,-0.051514814,74.90636704
2.447,-0.056622053,74.90636704
2.448,-0.061729291,74.90636704
2.449,-0.065878922,74.90636704
2.45,-0.069070947,74.90636704
2.451,-0.070666959,74.90636704
2.452,-0.070347756,74.90636704
2.453,-0.068113339,74.90636704
2.454,-0.064602113,74.90636704
2.455,-0.059494874,74.90636704
2.456,-0.053749231,74.90636704
2.457,-0.047684385,74.90636704
2.458,-0.041938742,74.90636704
2.459,-0.037150706,74.90636704
2.46,-0.033320277,74.90636704
2.461,-0.031405063,74.90636704
2.462,-0.031405063,74.90636704
2.463,-0.033001075,74.90636704
2.464,-0.036512301,74.90636704
2.465,-0.041300337,74.90636704
2.466,-0.047045981,74.90636704
2.467,-0.053430029,74.90636704
2.468,-0.059175672,74.90636704
2.469,-0.063963708,74.90636704
2.47,-0.067794137,74.90636704
2.471,-0.069709351,74.90636704
2.472,-0.070028554,74.90636704
2.473,-0.068432542,74.90636704
2.474,-0.06555972,74.90636704
2.475,-0.061410089,74.90636704
2.476,-0.05630285,74.90636704
2.477,-0.051195612,74.90636704
2.478,-0.046407576,74.90636704
2.479,-0.042577147,74.90636704
2.48,-0.039704325,74.90636704
2.481,-0.038108313,74.90636704
2.482,-0.038108313,74.90636704
2.483,-0.039385123,74.90636704
2.484,-0.042257944,74.90636704
2.485,-0.045769171,74.90636704
2.486,-0.0495996,74.90636704
2.487,-0.053749231,74.90636704
2.488,-0.05757966,74.90636704
2.489,-0.060452482,74.90636704
2.49,-0.062048494,74.90636704
2.491,-0.062048494,74.90636704
2.492,-0.060452482,74.90636704
2.493,-0.056941255,74.90636704
2.494,-0.051834017,74.90636704
2.495,-0.045449969,74.90636704
2.496,-0.038427516,74.90636704
2.497,-0.03108586,74.90636704
2.498,-0.02438261,74.90636704
2.499,-0.018956169,74.90636704
2.5,-0.014806538,74.90636704
2.501,-0.012891323,74.90636704
2.502,-0.013210526,74.90636704
2.503,-0.01512574,74.90636704
2.504,-0.018956169,74.90636704
2.505,-0.024063407,74.90636704
2.506,-0.030128253,74.90636704
2.507,-0.036193099,74.90636704
2.508,-0.041938742,74.90636704
2.509,-0.047045981,74.90636704
2.51,-0.051195612,74.90636704
2.511,-0.053749231,74.90636704
2.512,-0.054387636,74.90636704
2.513,-0.053430029,74.90636704
2.514,-0.050876409,74.90636704
2.515,-0.047045981,74.90636704
2.516,-0.042257944,74.90636704
2.517,-0.037469908,74.90636704
2.518,-0.032681872,74.90636704
2.519,-0.028532241,74.90636704
2.52,-0.025659419,74.90636704
2.521,-0.023744205,74.90636704
2.522,-0.023425003,74.90636704
2.523,-0.024701812,74.90636704
2.524,-0.026936229,74.90636704
2.525,-0.030128253,74.90636704
2.526,-0.03363948,74.90636704
2.527,-0.037150706,74.90636704
2.528,-0.040023528,74.90636704
2.529,-0.041938742,74.90636704
2.53,-0.042577147,74.90636704
2.531,-0.041938742,74.90636704
2.532,-0.039704325,74.90636704
2.533,-0.035873896,74.90636704
2.534,-0.030447455,74.90636704
2.535,-0.02438261,74.90636704
2.536,-0.017998562,74.90636704
2.537,-0.011933716,74.90636704
2.538,-0.006826477,74.90636704
2.539,-0.003315251,74.90636704
2.54,-0.002038441,74.90636704
2.541,-0.002996049,74.90636704
2.542,-0.006188073,74.90636704
2.543,-0.011295311,74.90636704
2.544,-0.018636966,74.90636704
2.545,-0.026936229,74.90636704
2.546,-0.035873896,74.90636704
2.547,-0.044811564,74.90636704
2.548,-0.053430029,74.90636704
2.549,-0.061090886,74.90636704
2.55,-0.06683653,74.90636704
2.551,-0.070986161,74.90636704
2.552,-0.072901375,74.90636704
2.553,-0.072901375,74.90636704
2.554,-0.070986161,74.90636704
2.555,-0.067474935,74.90636704
2.556,-0.063006101,74.90636704
2.557,-0.058218065,74.90636704
2.558,-0.053430029,74.90636704
2.559,-0.049280397,74.90636704
2.56,-0.046088373,74.90636704
2.561,-0.044811564,74.90636704
2.562,-0.044811564,74.90636704
2.563,-0.046726778,74.90636704
2.564,-0.050238005,74.90636704
2.565,-0.055026041,74.90636704
2.566,-0.060133279,74.90636704
2.567,-0.06555972,74.90636704
2.568,-0.070347756,74.90636704
2.569,-0.074178185,74.90636704
2.57,-0.076412602,74.90636704
2.571,-0.076731804,74.90636704
2.572,-0.075454995,74.90636704
2.573,-0.072262971,74.90636704
2.574,-0.067474935,74.90636704
2.575,-0.061410089,74.90636704
2.576,-0.054706838,74.90636704
2.577,-0.04832279,74.90636704
2.578,-0.042257944,74.90636704
2.579,-0.037150706,74.90636704
2.58,-0.03363948,74.90636704
2.581,-0.031724265,74.90636704
2.582,-0.031724265,74.90636704
2.583,-0.033958682,74.90636704
2.584,-0.038427516,74.90636704
2.585,-0.044492361,74.90636704
2.586,-0.051834017,74.90636704
2.587,-0.059814077,74.90636704
2.588,-0.068113339,74.90636704
2.589,-0.076093399,74.90636704
2.59,-0.083115852,74.90636704
2.591,-0.088861496,74.90636704
2.592,-0.093330329,74.90636704
2.593,-0.095564746,74.90636704
2.594,-0.096203151,74.90636704
2.595,-0.094926341,74.90636704
2.596,-0.092372722,74.90636704
2.597,-0.088861496,74.90636704
2.598,-0.084711864,74.90636704
2.599,-0.080243031,74.90636704
2.6,-0.075454995,74.90636704
2.601,-0.070347756,74.90636704
2.602,-0.064602113,74.90636704
2.603,-0.057898862,74.90636704
2.604,-0.050238005,74.90636704
2.605,-0.040661932,74.90636704
2.606,-0.028532241,74.90636704
2.607,-0.013529728,74.90636704
2.608,0.005303214,74.90636704
2.609,0.027966585,74.90636704
2.61,0.055737194,74.90636704
2.611,0.088615042,74.90636704
2.612,0.126919331,74.90636704
2.613,0.170330858,74.90636704
2.614,0.219168826,74.90636704
2.615,0.272156425,74.90636704
2.616,0.329293656,74.90636704
2.617,0.389622911,74.90636704
2.618,0.45186738,74.90636704
2.619,0.515069456,74.90636704
2.62,0.57795233,74.90636704
2.621,0.638281585,74.90636704
2.622,0.694461208,74.90636704
2.623,0.745533593,74.90636704
2.624,0.79022193,74.90636704
2.625,0.828526219,74.90636704
2.626,0.859808054,74.90636704
2.627,0.883429033,74.90636704
2.628,0.899708355,74.90636704
2.629,0.90832682,74.90636704
2.63,0.908646023,74.90636704
2.631,0.900985165,74.90636704
2.632,0.884705842,74.90636704
2.633,0.859808054,74.90636704
2.634,0.826611004,74.90636704
2.635,0.785114692,74.90636704
2.636,0.736276723,74.90636704
2.637,0.680416302,74.90636704
2.638,0.618491036,74.90636704
2.639,0.55145853,74.90636704
2.64,0.480914799,72.90400972
2.641,0.407817448,72.90400972
2.642,0.333124085,72.90400972
2.643,0.258111519,72.90400972
2.644,0.183737359,72.90400972
2.645,0.11095921,72.90400972
2.646,0.040734681,72.90400972
2.647,-0.025659419,72.90400972
2.648,-0.087903888,72.90400972
2.649,-0.144402714,72.90400972
2.65,-0.195155897,72.90400972
2.651,-0.238567424,72.90400972
2.652,-0.274318094,72.90400972
2.653,-0.30304631,72.90400972
2.654,-0.324113669,72.90400972
2.655,-0.339116182,72.90400972
2.656,-0.347734647,72.90400972
2.657,-0.351565076,72.90400972
2.658,-0.350607469,72.90400972
2.659,-0.345819432,72.90400972
2.66,-0.337839372,72.90400972
2.661,-0.327305693,72.90400972
2.662,-0.315176001,72.90400972
2.663,-0.301131096,72.90400972
2.664,-0.28580938,72.90400972
2.665,-0.269530057,72.90400972
2.666,-0.251973925,72.90400972
2.667,-0.233779388,72.90400972
2.668,-0.214308041,72.90400972
2.669,-0.194517492,72.90400972
2.67,-0.174088538,72.90400972
2.671,-0.153659584,72.90400972
2.672,-0.13323063,72.90400972
2.673,-0.114078486,72.90400972
2.674,-0.096203151,72.90400972
2.675,-0.079923828,72.90400972
2.676,-0.066517327,72.90400972
2.677,-0.055983648,72.90400972
2.678,-0.04832279,72.90400972
2.679,-0.043853956,72.90400972
2.68,-0.042896349,72.90400972
2.681,-0.044811564,72.90400972
2.682,-0.049918802,72.90400972
2.683,-0.057260458,72.90400972
2.684,-0.066517327,72.90400972
2.685,-0.076412602,72.90400972
2.686,-0.086307876,72.90400972
2.687,-0.095883949,72.90400972
2.688,-0.104183211,72.90400972
2.689,-0.110567259,72.90400972
2.69,-0.114716891,72.90400972
2.691,-0.116312903,72.90400972
2.692,-0.115036093,72.90400972
2.693,-0.111524867,72.90400972
2.694,-0.105779223,72.90400972
2.695,-0.09875677,72.90400972
2.696,-0.09077671,72.90400972
2.697,-0.08279665,72.90400972
2.698,-0.075135792,72.90400972
2.699,-0.068432542,72.90400972
2.7,-0.063644506,72.90400972
2.701,-0.060771684,72.90400972
2.702,-0.059494874,72.90400972
2.703,-0.060452482,72.90400972
2.704,-0.063006101,72.90400972
2.705,-0.066517327,72.90400972
2.706,-0.070666959,72.90400972
2.707,-0.07481659,72.90400972
2.708,-0.078008614,72.90400972
2.709,-0.080562233,72.90400972
2.71,-0.08151984,72.90400972
2.711,-0.080562233,72.90400972
2.712,-0.077689412,72.90400972
2.713,-0.07353978,72.90400972
2.714,-0.067794137,72.90400972
2.715,-0.061090886,72.90400972
2.716,-0.054387636,72.90400972
2.717,-0.047684385,72.90400972
2.718,-0.04161954,72.90400972
2.719,-0.036831504,72.90400972
2.72,-0.033958682,72.90400972
2.721,-0.032681872,72.90400972
2.722,-0.033320277,72.90400972
2.723,-0.035873896,72.90400972
2.724,-0.040023528,72.90400972
2.725,-0.045130766,72.90400972
2.726,-0.050557207,72.90400972
2.727,-0.055664446,72.90400972
2.728,-0.060133279,72.90400972
2.729,-0.063325303,72.90400972
2.73,-0.064602113,72.90400972
2.731,-0.06428291,72.90400972
2.732,-0.061729291,72.90400972
2.733,-0.057260458,72.90400972
2.734,-0.051514814,72.90400972
2.735,-0.044811564,72.90400972
2.736,-0.038108313,72.90400972
2.737,-0.031724265,72.90400972
2.738,-0.026297824,72.90400972
2.739,-0.022148193,72.90400972
2.74,-0.019594574,72.90400972
2.741,-0.018956169,72.90400972
2.742,-0.020552181,72.90400972
2.743,-0.024063407,72.90400972
2.744,-0.029170646,72.90400972
2.745,-0.035235492,72.90400972
2.746,-0.041938742,72.90400972
2.747,-0.04832279,72.90400972
2.748,-0.054387636,72.90400972
2.749,-0.059175672,72.90400972
2.75,-0.062048494,72.90400972
2.751,-0.063006101,72.90400972
2.752,-0.062048494,72.90400972
2.753,-0.05885647,72.90400972
2.754,-0.054068433,72.90400972
2.755,-0.04832279,72.90400972
2.756,-0.041938742,72.90400972
2.757,-0.035873896,72.90400972
2.758,-0.030128253,72.90400972
2.759,-0.025659419,72.90400972
2.76,-0.022786598,72.90400972
2.761,-0.021190586,72.90400972
2.762,-0.02182899,72.90400972
2.763,-0.023744205,72.90400972
2.764,-0.027255431,72.90400972
2.765,-0.031724265,72.90400972
2.766,-0.036831504,72.90400972
2.767,-0.041300337,72.90400972
2.768,-0.045130766,72.90400972
2.769,-0.047684385,72.90400972
2.77,-0.048641993,72.90400972
2.771,-0.048003588,72.90400972
2.772,-0.045769171,72.90400972
2.773,-0.041938742,72.90400972
2.774,-0.036831504,72.90400972
2.775,-0.03108586,72.90400972
2.776,-0.025340217,72.90400972
2.777,-0.020232978,72.90400972
2.778,-0.016083347,72.90400972
2.779,-0.013210526,72.90400972
2.78,-0.012572121,72.90400972
2.781,-0.013529728,72.90400972
2.782,-0.016083347,72.90400972
2.783,-0.020232978,72.90400972
2.784,-0.025659419,72.90400972
2.785,-0.031405063,72.90400972
2.786,-0.037469908,72.90400972
2.787,-0.042896349,72.90400972
2.788,-0.047045981,72.90400972
2.789,-0.0495996,72.90400972
2.79,-0.050238005,72.90400972
2.791,-0.048641993,72.90400972
2.792,-0.044811564,72.90400972
2.793,-0.03906592,72.90400972
2.794,-0.032043467,72.90400972
2.795,-0.023744205,72.90400972
2.796,-0.015444942,72.90400972
2.797,-0.007784085,72.90400972
2.798,-0.001080834,72.90400972
2.799,0.004345607,72.90400972
2.8,0.007537631,72.90400972
2.801,0.00881444,72.90400972
2.802,0.008176036,72.90400972
2.803,0.005941619,72.90400972
2.804,0.001791988,72.90400972
2.805,-0.002996049,72.90400972
2.806,-0.008103287,72.90400972
2.807,-0.012891323,72.90400972
2.808,-0.017040954,72.90400972
2.809,-0.019594574,72.90400972
2.81,-0.020552181,72.90400972
2.811,-0.019913776,72.90400972
2.812,-0.017040954,72.90400972
2.813,-0.012252918,72.90400972
2.814,-0.006188073,72.90400972
2.815,0.001153583,72.90400972
2.816,0.008176036,72.90400972
2.817,0.015517691,72.90400972
2.818,0.021901739,72.90400972
2.819,0.026689775,72.90400972
2.82,0.029562597,72.90400972
2.821,0.030201002,72.90400972
2.822,0.029243394,72.90400972
2.823,0.026370573,72.90400972
2.824,0.022220942,72.90400972
2.825,0.017752108,72.90400972
2.826,0.012964072,72.90400972
2.827,0.008495238,72.90400972
2.828,0.005303214,72.90400972
2.829,0.003068797,72.90400972
2.83,0.002749595,72.90400972
2.831,0.004026404,72.90400972
2.832,0.007218428,72.90400972
2.833,0.011687262,72.90400972
2.834,0.017752108,72.90400972
2.835,0.024774561,72.90400972
2.836,0.031797014,72.90400972
2.837,0.038181062,72.90400972
2.838,0.043607503,72.90400972
2.839,0.047757134,72.90400972
2.84,0.049991551,72.90400972
2.841,0.049991551,72.90400972
2.842,0.048395539,72.90400972
2.843,0.04456511,72.90400972
2.844,0.039777074,72.90400972
2.845,0.034031431,72.90400972
2.846,0.027966585,72.90400972
2.847,0.022540144,72.90400972
2.848,0.01807131,72.90400972
2.849,0.014879286,72.90400972
2.85,0.013602477,72.90400972
2.851,0.013921679,72.90400972
2.852,0.016156096,72.90400972
2.853,0.019986525,72.90400972
2.854,0.025093763,72.90400972
2.855,0.030839406,72.90400972
2.856,0.03658505,72.90400972
2.857,0.042011491,72.90400972
2.858,0.046480324,72.90400972
2.859,0.049353146,72.90400972
2.86,0.050629956,72.90400972
2.861,0.049672348,72.90400972
2.862,0.046799527,72.90400972
2.863,0.042011491,72.90400972
2.864,0.035946645,72.90400972
2.865,0.028924192,72.90400972
2.866,0.022220942,72.90400972
2.867,0.015517691,72.90400972
2.868,0.009452845,72.90400972
2.869,0.005303214,72.90400972
2.87,0.002430392,72.90400972
2.871,0.001472785,72.90400972
2.872,0.00211119,72.90400972
2.873,0.004345607,72.90400972
2.874,0.007537631,72.90400972
2.875,0.01136806,72.90400972
2.876,0.015517691,72.90400972
2.877,0.019028917,72.90400972
2.878,0.021582537,72.90400972
2.879,0.022859346,72.90400972
2.88,0.022540144,72.90400972
2.881,0.019986525,72.90400972
2.882,0.015836893,72.90400972
2.883,0.01009125,72.90400972
2.884,0.003388,72.90400972
2.885,-0.004592061,72.90400972
2.886,-0.012572121,72.90400972
2.887,-0.020232978,72.90400972
2.888,-0.026617027,72.90400972
2.889,-0.032043467,72.90400972
2.89,-0.035873896,72.90400972
2.891,-0.037789111,72.90400972
2.892,-0.038108313,72.90400972
2.893,-0.036831504,72.90400972
2.894,-0.034277884,72.90400972
2.895,-0.031405063,72.90400972
2.896,-0.028532241,72.90400972
2.897,-0.026297824,72.90400972
2.898,-0.025021015,72.90400972
2.899,-0.025340217,72.90400972
2.9,-0.026617027,72.90400972
2.901,-0.029809051,72.90400972
2.902,-0.034597087,72.90400972
2.903,-0.04034273,72.90400972
2.904,-0.047365183,72.90400972
2.905,-0.054387636,72.90400972
2.906,-0.061729291,72.90400972
2.907,-0.068113339,72.90400972
2.908,-0.073220578,72.90400972
2.909,-0.076731804,72.90400972
2.91,-0.078327816,72.90400972
2.911,-0.078008614,72.90400972
2.912,-0.075774197,72.90400972
2.913,-0.072262971,72.90400972
2.914,-0.067794137,72.90400972
2.915,-0.063006101,72.90400972
2.916,-0.058537267,72.90400972
2.917,-0.055026041,72.90400972
2.918,-0.052791624,72.90400972
2.919,-0.052472421,72.90400972
2.92,-0.054068433,72.90400972
2.921,-0.057898862,72.90400972
2.922,-0.063644506,72.90400972
2.923,-0.070986161,72.90400972
2.924,-0.079604626,72.90400972
2.925,-0.088861496,72.90400972
2.926,-0.097799163,72.90400972
2.927,-0.105779223,72.90400972
2.928,-0.112482474,72.90400972
2.929,-0.11727051,72.90400972
2.93,-0.120462534,72.90400972
2.931,-0.121100939,72.90400972
2.932,-0.119824129,72.90400972
2.933,-0.116312903,72.90400972
2.934,-0.111205664,72.90400972
2.935,-0.105460021,72.90400972
2.936,-0.099395175,72.90400972
2.937,-0.093649532,72.90400972
2.938,-0.088861496,72.90400972
2.939,-0.085350269,72.90400972
2.94,-0.083435055,72.90400972
2.941,-0.083754257,72.90400972
2.942,-0.085988674,72.90400972
2.943,-0.090138305,72.90400972
2.944,-0.095245544,72.90400972
2.945,-0.101629592,72.90400972
2.946,-0.10801364,72.90400972
2.947,-0.114078486,72.90400972
2.948,-0.119185724,72.90400972
2.949,-0.123016153,72.90400972
2.95,-0.124931368,72.90400972
2.951,-0.12525057,72.90400972
2.952,-0.123654558,72.90400972
2.953,-0.120781736,72.90400972
2.954,-0.116951307,72.90400972
2.955,-0.112801676,72.90400972
2.956,-0.108652045,72.90400972
2.957,-0.105460021,72.90400972
2.958,-0.102906402,72.90400972
2.959,-0.101948794,72.90400972
2.96,-0.102267997,72.90400972
2.961,-0.104502414,72.90400972
2.962,-0.10801364,72.90400972
2.963,-0.112801676,72.90400972
2.964,-0.118547319,72.90400972
2.965,-0.124931368,72.90400972
2.966,-0.130996213,72.90400972
2.967,-0.136741857,72.90400972
2.968,-0.14121069,72.90400972
2.969,-0.14376431,72.90400972
2.97,-0.144721917,72.90400972
2.971,-0.14376431,72.90400972
2.972,-0.140891488,72.90400972
2.973,-0.136422654,72.90400972
2.974,-0.130677011,72.90400972
2.975,-0.124612165,72.90400972
2.976,-0.118547319,72.90400972
2.977,-0.113440081,72.90400972
2.978,-0.109609652,72.90400972
2.979,-0.107375235,72.90400972
2.98,-0.107056033,72.90400972
2.981,-0.108652045,72.90400972
2.982,-0.111844069,72.90400972
2.983,-0.116312903,72.90400972
2.984,-0.121739344,72.90400972
2.985,-0.127804189,72.90400972
2.986,-0.13323063,72.90400972
2.987,-0.138337869,72.90400972
2.988,-0.141849095,72.90400972
2.989,-0.144083512,72.90400972
2.99,-0.144402714,72.90400972
2.991,-0.1424875,72.90400972
2.992,-0.138657071,72.90400972
2.993,-0.133549833,72.90400972
2.994,-0.127484987,72.90400972
2.995,-0.120781736,72.90400972
2.996,-0.114397688,72.90400972
2.997,-0.108652045,72.90400972
2.998,-0.104502414,72.90400972
2.999,-0.101629592,72.90400972
3,-0.100991187,72.90400972
3.001,-0.102267997,72.90400972
3.002,-0.105460021,72.90400972
3.003,-0.110248057,72.90400972
3.004,-0.1159937,72.90400972
3.005,-0.122377748,72.90400972
3.006,-0.128761796,72.90400972
3.007,-0.134826642,72.90400972
3.008,-0.139614678,72.90400972
3.009,-0.142806702,72.90400972
3.01,-0.144402714,72.90400972
3.011,-0.144083512,72.90400972
3.012,-0.142168297,72.90400972
3.013,-0.138337869,72.90400972
3.014,-0.133549833,72.90400972
3.015,-0.128123392,72.90400972
3.016,-0.122696951,72.90400972
3.017,-0.117908915,72.90400972
3.018,-0.113759283,72.90400972
3.019,-0.111205664,72.90400972
3.02,-0.109928855,72.90400972
3.021,-0.110567259,72.90400972
3.022,-0.112482474,72.90400972
3.023,-0.115674498,72.90400972
3.024,-0.119185724,72.90400972
3.025,-0.123335356,72.90400972
3.026,-0.127165784,72.90400972
3.027,-0.130677011,72.90400972
3.028,-0.132592225,72.90400972
3.029,-0.13323063,72.90400972
3.03,-0.131953821,72.90400972
3.031,-0.129080999,72.90400972
3.032,-0.124612165,72.90400972
3.033,-0.118866522,72.90400972
3.034,-0.112482474,72.90400972
3.035,-0.106098426,72.90400972
3.036,-0.100352782,72.90400972
3.037,-0.095564746,72.90400972
3.038,-0.09205352,72.90400972
3.039,-0.09077671,72.90400972
3.04,-0.091415115,72.90400972
3.041,-0.094287937,72.90400972
3.042,-0.098437568,72.90400972
3.043,-0.104183211,72.90400972
3.044,-0.110886462,72.90400972
3.045,-0.117908915,72.90400972
3.046,-0.124612165,72.90400972
3.047,-0.130357808,72.90400972
3.048,-0.13450744,72.90400972
3.049,-0.137380261,72.90400972
3.05,-0.137699464,72.90400972
3.051,-0.136422654,72.90400972
3.052,-0.132911428,72.90400972
3.053,-0.128123392,72.90400972
3.054,-0.122058546,72.90400972
3.055,-0.1159937,72.90400972
3.056,-0.109609652,72.90400972
3.057,-0.104183211,72.90400972
3.058,-0.10003358,72.90400972
3.059,-0.097160758,72.90400972
3.06,-0.096203151,72.90400972
3.061,-0.096522353,72.90400972
3.062,-0.098437568,72.90400972
3.063,-0.101629592,72.90400972
3.064,-0.105460021,72.90400972
3.065,-0.109609652,72.90400972
3.066,-0.113440081,72.90400972
3.067,-0.116632105,72.90400972
3.068,-0.118866522,72.90400972
3.069,-0.119185724,72.90400972
3.07,-0.117589712,72.90400972
3.071,-0.114078486,72.90400972
3.072,-0.108971247,72.90400972
3.073,-0.102906402,72.90400972
3.074,-0.096203151,72.90400972
3.075,-0.089499901,72.90400972
3.076,-0.083115852,72.90400972
3.077,-0.078008614,72.90400972
3.078,-0.074497387,72.90400972
3.079,-0.073220578,72.90400972
3.08,-0.073858983,72.90400972
3.081,-0.076412602,72.90400972
3.082,-0.08151984,72.90400972
3.083,-0.087903888,72.90400972
3.084,-0.095245544,72.90400972
3.085,-0.103225604,72.90400972
3.086,-0.110886462,72.90400972
3.087,-0.117589712,72.90400972
3.088,-0.123335356,72.90400972
3.089,-0.127165784,72.90400972
3.09,-0.129080999,72.90400972
3.091,-0.129080999,72.90400972
3.092,-0.127165784,72.90400972
3.093,-0.123654558,72.90400972
3.094,-0.119504927,72.90400972
3.095,-0.114716891,72.90400972
3.096,-0.110248057,72.90400972
3.097,-0.106098426,72.90400972
3.098,-0.103225604,72.90400972
3.099,-0.101948794,72.90400972
3.1,-0.102267997,72.90400972
3.101,-0.104183211,72.90400972
3.102,-0.107694438,72.90400972
3.103,-0.112801676,72.90400972
3.104,-0.118547319,72.90400972
3.105,-0.124612165,72.90400972
3.106,-0.130038606,72.90400972
3.107,-0.13450744,72.90400972
3.108,-0.137699464,72.90400972
3.109,-0.139295476,72.90400972
3.11,-0.138657071,72.90400972
3.111,-0.136422654,72.90400972
3.112,-0.132273023,72.90400972
3.113,-0.126846582,72.90400972
3.114,-0.121100939,72.90400972
3.115,-0.115036093,72.90400972
3.116,-0.10929045,72.90400972
3.117,-0.104502414,72.90400972
3.118,-0.100991187,72.90400972
3.119,-0.099395175,72.90400972
3.12,-0.099395175,72.90400972
3.121,-0.101629592,72.90400972
3.122,-0.105140818,72.90400972
3.123,-0.110248057,72.90400972
3.124,-0.1159937,72.90400972
3.125,-0.121739344,72.90400972
3.126,-0.127165784,72.90400972
3.127,-0.131634618,72.90400972
3.128,-0.13450744,72.90400972
3.129,-0.135784249,72.90400972
3.13,-0.134826642,72.90400972
3.131,-0.131953821,72.90400972
3.132,-0.127165784,72.90400972
3.133,-0.121100939,72.90400972
3.134,-0.114078486,72.90400972
3.135,-0.107056033,72.90400972
3.136,-0.100352782,72.90400972
3.137,-0.094926341,72.90400972
3.138,-0.091095913,72.90400972
3.139,-0.088861496,72.90400972
3.14,-0.088861496,72.90400972
3.141,-0.09077671,72.90400972
3.142,-0.094607139,72.90400972
3.143,-0.100352782,72.90400972
3.144,-0.10673683,72.90400972
3.145,-0.113759283,72.90400972
3.146,-0.120781736,72.90400972
3.147,-0.126846582,72.90400972
3.148,-0.131634618,72.90400972
3.149,-0.134826642,72.90400972
3.15,-0.136422654,72.90400972
3.151,-0.135465047,72.90400972
3.152,-0.132911428,72.90400972
3.153,-0.128761796,72.90400972
3.154,-0.123654558,72.90400972
3.155,-0.118228117,72.90400972
3.156,-0.113120879,72.90400972
3.157,-0.108971247,72.90400972
3.158,-0.105779223,72.90400972
3.159,-0.104502414,72.90400972
3.16,-0.104821616,72.90400972
3.161,-0.10673683,72.90400972
3.162,-0.110248057,72.90400972
3.163,-0.115036093,72.90400972
3.164,-0.120781736,72.90400972
3.165,-0.12652738,72.90400972
3.166,-0.131634618,72.90400972
3.167,-0.135784249,72.90400972
3.168,-0.138976273,72.90400972
3.169,-0.139933881,72.90400972
3.17,-0.139295476,72.90400972
3.171,-0.137061059,72.90400972
3.172,-0.13323063,72.90400972
3.173,-0.128123392,72.90400972
3.174,-0.122058546,72.90400972
3.175,-0.115674498,72.90400972
3.176,-0.109928855,72.90400972
3.177,-0.105460021,72.90400972
3.178,-0.102267997,72.90400972
3.179,-0.100671985,72.90400972
3.18,-0.10131039,72.90400972
3.181,-0.103544806,72.90400972
3.182,-0.107375235,72.90400972
3.183,-0.112801676,72.90400972
3.184,-0.118547319,72.90400972
3.185,-0.124612165,72.90400972
3.186,-0.130038606,72.90400972
3.187,-0.134826642,72.90400972
3.188,-0.138018666,72.90400972
3.189,-0.139295476,72.90400972
3.19,-0.138657071,72.90400972
3.191,-0.136422654,72.90400972
3.192,-0.132273023,72.90400972
3.193,-0.126846582,72.90400972
3.194,-0.121100939,72.90400972
3.195,-0.114716891,72.90400972
3.196,-0.108971247,72.90400972
3.197,-0.104502414,72.90400972
3.198,-0.100991187,72.90400972
3.199,-0.099395175,72.90400972
3.2,-0.099395175,72.90400972
3.201,-0.101629592,72.90400972
3.202,-0.105140818,72.90400972
3.203,-0.110248057,72.90400972
3.204,-0.116312903,72.90400972
3.205,-0.122377748,72.90400972
3.206,-0.128123392,72.90400972
3.207,-0.132911428,72.90400972
3.208,-0.136103452,72.90400972
3.209,-0.137699464,72.90400972
3.21,-0.137061059,72.90400972
3.211,-0.134826642,72.90400972
3.212,-0.130677011,72.90400972
3.213,-0.125569772,72.90400972
3.214,-0.120143331,72.90400972
3.215,-0.114397688,72.90400972
3.216,-0.108971247,72.90400972
3.217,-0.104502414,72.90400972
3.218,-0.101629592,72.90400972
3.219,-0.100352782,72.90400972
3.22,-0.100671985,72.90400972
3.221,-0.102906402,72.90400972
3.222,-0.106417628,72.90400972
3.223,-0.111524867,72.90400972
3.224,-0.116951307,72.90400972
3.225,-0.122696951,72.90400972
3.226,-0.127484987,72.90400972
3.227,-0.131315416,72.90400972
3.228,-0.13323063,72.90400972
3.229,-0.13323063,72.90400972
3.23,-0.131634618,72.90400972
3.231,-0.128123392,72.90400972
3.232,-0.123016153,72.90400972
3.233,-0.116632105,72.90400972
3.234,-0.109928855,72.90400972
3.235,-0.103225604,72.90400972
3.236,-0.097160758,72.90400972
3.237,-0.09205352,72.90400972
3.238,-0.088223091,72.90400972
3.239,-0.086946281,72.90400972
3.24,-0.087265484,72.90400972
3.241,-0.089819103,72.90400972
3.242,-0.093968734,72.90400972
3.243,-0.099395175,72.90400972
3.244,-0.105779223,72.90400972
3.245,-0.112163271,72.90400972
3.246,-0.117908915,72.90400972
3.247,-0.122696951,72.90400972
3.248,-0.125569772,72.90400972
3.249,-0.126846582,72.90400972
3.25,-0.126208177,72.90400972
3.251,-0.123335356,72.90400972
3.252,-0.119185724,72.90400972
3.253,-0.113759283,72.90400972
3.254,-0.107694438,72.90400972
3.255,-0.101629592,72.90400972
3.256,-0.096203151,72.90400972
3.257,-0.091734317,72.90400972
3.258,-0.088861496,72.90400972
3.259,-0.087584686,72.90400972
3.26,-0.088542293,72.90400972
3.261,-0.091095913,72.90400972
3.262,-0.095564746,72.90400972
3.263,-0.10131039,72.90400972
3.264,-0.107375235,72.90400972
3.265,-0.113759283,72.90400972
3.266,-0.119504927,72.90400972
3.267,-0.124292963,72.90400972
3.268,-0.127804189,72.90400972
3.269,-0.129400201,72.90400972
3.27,-0.129400201,72.90400972
3.271,-0.127165784,72.90400972
3.272,-0.123335356,72.90400972
3.273,-0.118228117,72.90400972
3.274,-0.112482474,72.90400972
3.275,-0.10673683,72.90400972
3.276,-0.101629592,72.90400972
3.277,-0.097479961,72.90400972
3.278,-0.094926341,72.90400972
3.279,-0.093968734,72.90400972
3.28,-0.094926341,72.90400972
3.281,-0.097479961,72.90400972
3.282,-0.101629592,72.90400972
3.283,-0.10673683,72.90400972
3.284,-0.112482474,72.90400972
3.285,-0.118547319,72.90400972
3.286,-0.123654558,72.90400972
3.287,-0.127484987,72.90400972
3.288,-0.130038606,72.90400972
3.289,-0.130357808,72.90400972
3.29,-0.128761796,72.90400972
3.291,-0.12525057,72.90400972
3.292,-0.120462534,72.90400972
3.293,-0.114716891,72.90400972
3.294,-0.108332842,72.90400972
3.295,-0.101948794,72.90400972
3.296,-0.096522353,72.90400972
3.297,-0.091734317,72.90400972
3.298,-0.088861496,72.90400972
3.299,-0.087584686,72.90400972
3.3,-0.088542293,72.90400972
3.301,-0.091095913,72.90400972
3.302,-0.095564746,72.90400972
3.303,-0.100991187,72.90400972
3.304,-0.107056033,72.90400972
3.305,-0.112801676,72.90400972
3.306,-0.118228117,72.90400972
3.307,-0.122058546,72.90400972
3.308,-0.124612165,72.90400972
3.309,-0.12525057,72.90400972
3.31,-0.12397376,72.90400972
3.311,-0.121100939,72.90400972
3.312,-0.116312903,72.90400972
3.313,-0.110567259,72.90400972
3.314,-0.104502414,72.90400972
3.315,-0.098118365,72.90400972
3.316,-0.092372722,72.90400972
3.317,-0.087903888,72.90400972
3.318,-0.084711864,72.90400972
3.319,-0.083115852,72.90400972
3.32,-0.083754257,72.90400972
3.321,-0.085988674,72.90400972
3.322,-0.089819103,72.90400972
3.323,-0.094607139,72.90400972
3.324,-0.099714378,72.90400972
3.325,-0.104821616,72.90400972
3.326,-0.10929045,72.90400972
3.327,-0.112801676,72.90400972
3.328,-0.114716891,72.90400972
3.329,-0.115036093,72.90400972
3.33,-0.113440081,72.90400972
3.331,-0.109928855,72.90400972
3.332,-0.104821616,72.90400972
3.333,-0.099075973,72.90400972
3.334,-0.092372722,72.90400972
3.335,-0.086307876,72.90400972
3.336,-0.080881436,72.90400972
3.337,-0.077051007,72.90400972
3.338,-0.07481659,72.90400972
3.339,-0.075135792,72.90400972
3.34,-0.077370209,72.90400972
3.341,-0.081200638,72.90400972
3.342,-0.086627079,72.90400972
3.343,-0.093330329,72.90400972
3.344,-0.10003358,72.90400972
3.345,-0.107056033,72.90400972
3.346,-0.113120879,72.90400972
3.347,-0.118228117,72.90400972
3.348,-0.121420141,72.90400972
3.349,-0.123016153,72.90400972
3.35,-0.122058546,72.90400972
3.351,-0.119504927,72.90400972
3.352,-0.115355295,72.90400972
3.353,-0.109609652,72.90400972
3.354,-0.103225604,72.90400972
3.355,-0.096841556,72.90400972
3.356,-0.09077671,72.90400972
3.357,-0.085669472,72.90400972
3.358,-0.081839043,72.90400972
3.359,-0.079923828,72.90400972
3.36,-0.079923828,72.90400972
3.361,-0.081200638,72.90400972
3.362,-0.08407346,72.90400972
3.363,-0.088223091,72.90400972
3.364,-0.092691925,72.90400972
3.365,-0.097479961,72.90400972
3.366,-0.101948794,72.90400972
3.367,-0.105140818,72.90400972
3.368,-0.107375235,72.90400972
3.369,-0.107694438,72.90400972
3.37,-0.106417628,72.90400972
3.371,-0.103544806,72.90400972
3.372,-0.099075973,72.90400972
3.373,-0.093968734,72.90400972
3.374,-0.088223091,72.90400972
3.375,-0.08279665,72.90400972
3.376,-0.078327816,72.90400972
3.377,-0.07481659,72.90400972
3.378,-0.073220578,72.90400972
3.379,-0.07353978,72.90400972
3.38,-0.075454995,72.90400972
3.381,-0.079285424,72.90400972
3.382,-0.08407346,72.90400972
3.383,-0.090138305,72.90400972
3.384,-0.096203151,72.90400972
3.385,-0.102267997,72.90400972
3.386,-0.107375235,72.90400972
3.387,-0.111524867,72.90400972
3.388,-0.113440081,72.90400972
3.389,-0.113440081,72.90400972
3.39,-0.111524867,72.90400972
3.391,-0.107694438,72.90400972
3.392,-0.102267997,72.90400972
3.393,-0.095883949,72.90400972
3.394,-0.089180698,72.90400972
3.395,-0.08279665,72.90400972
3.396,-0.076731804,72.90400972
3.397,-0.071943768,72.90400972
3.398,-0.068432542,72.90400972
3.399,-0.06683653,72.90400972
3.4,-0.06683653,72.90400972
3.401,-0.069070947,72.90400972
3.402,-0.072262971,72.90400972
3.403,-0.076412602,72.90400972
3.404,-0.081200638,72.90400972
3.405,-0.085669472,72.90400972
3.406,-0.089819103,72.90400972
3.407,-0.093330329,72.90400972
3.408,-0.094926341,72.90400972
3.409,-0.095245544,72.90400972
3.41,-0.093649532,72.90400972
3.411,-0.090138305,72.90400972
3.412,-0.085669472,72.90400972
3.413,-0.079923828,72.90400972
3.414,-0.073858983,72.90400972
3.415,-0.068113339,72.90400972
3.416,-0.063325303,72.90400972
3.417,-0.060133279,72.90400972
3.418,-0.058218065,72.90400972
3.419,-0.058537267,72.90400972
3.42,-0.060452482,72.90400972
3.421,-0.063325303,72.90400972
3.422,-0.067794137,72.90400972
3.423,-0.072582173,72.90400972
3.424,-0.077689412,72.90400972
3.425,-0.082158245,72.90400972
3.426,-0.085988674,72.90400972
3.427,-0.088542293,72.90400972
3.428,-0.089180698,72.90400972
3.429,-0.088223091,72.90400972
3.43,-0.085350269,72.90400972
3.431,-0.080881436,72.90400972
3.432,-0.07481659,72.90400972
3.433,-0.068113339,72.90400972
3.434,-0.061090886,72.90400972
3.435,-0.054706838,72.90400972
3.436,-0.049280397,72.90400972
3.437,-0.045130766,72.90400972
3.438,-0.042896349,72.90400972
3.439,-0.042896349,72.90400972
3.44,-0.044811564,72.90400972
3.441,-0.048961195,72.90400972
3.442,-0.054706838,72.90400972
3.443,-0.061410089,72.90400972
3.444,-0.068432542,72.90400972
3.445,-0.075454995,72.90400972
3.446,-0.081839043,72.90400972
3.447,-0.086946281,72.90400972
3.448,-0.090457508,72.90400972
3.449,-0.091734317,72.90400972
3.45,-0.091415115,72.90400972
3.451,-0.089180698,72.90400972
3.452,-0.085669472,72.90400972
3.453,-0.081200638,72.90400972
3.454,-0.076731804,72.90400972
3.455,-0.072262971,72.90400972
3.456,-0.068751744,72.90400972
3.457,-0.06683653,72.90400972
3.458,-0.066198125,72.90400972
3.459,-0.067474935,72.90400972
3.46,-0.070666959,72.90400972
3.461,-0.075454995,72.90400972
3.462,-0.081200638,72.90400972
3.463,-0.087903888,72.90400972
3.464,-0.094607139,72.90400972
3.465,-0.10131039,72.90400972
3.466,-0.10673683,72.90400972
3.467,-0.110886462,72.90400972
3.468,-0.113440081,72.90400972
3.469,-0.113759283,72.90400972
3.47,-0.111844069,72.90400972
3.471,-0.108332842,72.90400972
3.472,-0.102906402,72.90400972
3.473,-0.096522353,72.90400972
3.474,-0.089180698,72.90400972
3.475,-0.081839043,72.90400972
3.476,-0.075135792,72.90400972
3.477,-0.069709351,72.90400972
3.478,-0.066198125,72.90400972
3.479,-0.064602113,72.90400972
3.48,-0.064602113,72.90400972
3.481,-0.066517327,72.90400972
3.482,-0.069390149,72.90400972
3.483,-0.072901375,72.90400972
3.484,-0.077051007,72.90400972
3.485,-0.080881436,72.90400972
3.486,-0.08407346,72.90400972
3.487,-0.086627079,72.90400972
3.488,-0.087903888,72.90400972
3.489,-0.087903888,72.90400972
3.49,-0.086627079,72.90400972
3.491,-0.084711864,72.90400972
3.492,-0.082158245,72.90400972
3.493,-0.079923828,72.90400972
3.494,-0.077689412,72.90400972
3.495,-0.076731804,72.90400972
3.496,-0.076731804,72.90400972
3.497,-0.078327816,72.90400972
3.498,-0.081839043,72.90400972
3.499,-0.087265484,72.90400972
3.5,-0.094287937,72.90400972
3.501,-0.101948794,72.90400972
3.502,-0.110248057,72.90400972
3.503,-0.118228117,72.90400972
3.504,-0.124931368,72.90400972
3.505,-0.129719404,72.90400972
3.506,-0.131634618,72.90400972
3.507,-0.130038606,72.90400972
3.508,-0.124292963,72.90400972
3.509,-0.114078486,72.90400972
3.51,-0.099075973,72.90400972
3.511,-0.079604626,72.90400972
3.512,-0.05630285,72.90400972
3.513,-0.029489848,72.90400972
3.514,0.000515178,72.90400972
3.515,0.032435419,72.90400972
3.516,0.066909278,72.90400972
3.517,0.103298353,72.90400972
3.518,0.141602641,72.90400972
3.519,0.180864537,72.90400972
3.52,0.222041648,72.90400972
3.521,0.26481477,72.90400972
3.522,0.310141512,72.90400972
3.523,0.35770267,72.90400972
3.524,0.40813665,72.90400972
3.525,0.46112425,72.90400972
3.526,0.516027063,72.90400972
3.527,0.571568282,72.90400972
3.528,0.627109501,72.90400972
3.529,0.68137391,72.90400972
3.53,0.733084699,72.90400972
3.531,0.781603465,72.90400972
3.532,0.825334195,72.90400972
3.533,0.863000079,72.90400972
3.534,0.893324307,72.90400972
3.535,0.914710868,72.90400972
3.536,0.92556375,72.90400972
3.537,0.925244548,72.90400972
3.538,0.912795654,72.90400972
3.539,0.888217069,72.90400972
3.54,0.851508792,72.90400972
3.541,0.804266836,72.90400972
3.542,0.747129605,72.90400972
3.543,0.682650719,72.90400972
3.544,0.612106988,72.90400972
3.545,0.538052029,72.90400972
3.546,0.462081857,66.22516556
3.547,0.386111684,66.22516556
3.548,0.311418321,66.22516556
3.549,0.239278578,66.22516556
3.55,0.170330858,66.22516556
3.551,0.105213567,66.22516556
3.552,0.0432883,66.22516556
3.553,-0.014168133,66.22516556
3.554,-0.068432542,66.22516556
3.555,-0.118866522,66.22516556
3.556,-0.165470073,66.22516556
3.557,-0.208243196,66.22516556
3.558,-0.246866687,66.22516556
3.559,-0.281978951,66.22516556
3.56,-0.312622382,66.22516556
3.561,-0.33879698,66.22516556
3.562,-0.360502743,66.22516556
3.563,-0.376782066,66.22516556
3.564,-0.387634948,66.22516556
3.565,-0.392742186,66.22516556
3.566,-0.391784579,66.22516556
3.567,-0.384762126,66.22516556
3.568,-0.37199403,66.22516556
3.569,-0.353799493,66.22516556
3.57,-0.331136122,66.22516556
3.571,-0.304642322,66.22516556
3.572,-0.275594903,66.22516556
3.573,-0.245270675,66.22516556
3.574,-0.214946446,66.22516556
3.575,-0.18621823,66.22516556
3.576,-0.15972443,66.22516556
3.577,-0.136422654,66.22516556
3.578,-0.117589712,66.22516556
3.579,-0.103544806,66.22516556
3.58,-0.093968734,66.22516556
3.581,-0.088861496,66.22516556
3.582,-0.087903888,66.22516556
3.583,-0.089819103,66.22516556
3.584,-0.093968734,66.22516556
3.585,-0.099395175,66.22516556
3.586,-0.105460021,66.22516556
3.587,-0.111205664,66.22516556
3.588,-0.1159937,66.22516556
3.589,-0.119185724,66.22516556
3.59,-0.120781736,66.22516556
3.591,-0.120462534,66.22516556
3.592,-0.118866522,66.22516556
3.593,-0.1159937,66.22516556
3.594,-0.112801676,66.22516556
3.595,-0.10929045,66.22516556
3.596,-0.106417628,66.22516556
3.597,-0.104183211,66.22516556
3.598,-0.102906402,66.22516556
3.599,-0.103225604,66.22516556
3.6,-0.105140818,66.22516556
3.601,-0.10801364,66.22516556
3.602,-0.111524867,66.22516556
3.603,-0.115355295,66.22516556
3.604,-0.118866522,66.22516556
3.605,-0.121739344,66.22516556
3.606,-0.123654558,66.22516556
3.607,-0.12397376,66.22516556
3.608,-0.122696951,66.22516556
3.609,-0.119185724,66.22516556
3.61,-0.114078486,66.22516556
3.611,-0.107694438,66.22516556
3.612,-0.10003358,66.22516556
3.613,-0.09205352,66.22516556
3.614,-0.084711864,66.22516556
3.615,-0.078008614,66.22516556
3.616,-0.072901375,66.22516556
3.617,-0.069390149,66.22516556
3.618,-0.067794137,66.22516556
3.619,-0.068113339,66.22516556
3.62,-0.070028554,66.22516556
3.621,-0.073858983,66.22516556
3.622,-0.078327816,66.22516556
3.623,-0.083435055,66.22516556
3.624,-0.088861496,66.22516556
3.625,-0.093330329,66.22516556
3.626,-0.096841556,66.22516556
3.627,-0.099075973,66.22516556
3.628,-0.099395175,66.22516556
3.629,-0.097799163,66.22516556
3.63,-0.094287937,66.22516556
3.631,-0.089180698,66.22516556
3.632,-0.08279665,66.22516556
3.633,-0.075774197,66.22516556
3.634,-0.068751744,66.22516556
3.635,-0.062686898,66.22516556
3.636,-0.057260458,66.22516556
3.637,-0.053749231,66.22516556
3.638,-0.051514814,66.22516556
3.639,-0.051514814,66.22516556
3.64,-0.053110826,66.22516556
3.641,-0.055983648,66.22516556
3.642,-0.060133279,66.22516556
3.643,-0.064921315,66.22516556
3.644,-0.069390149,66.22516556
3.645,-0.07353978,66.22516556
3.646,-0.076731804,66.22516556
3.647,-0.078647019,66.22516556
3.648,-0.078327816,66.22516556
3.649,-0.075774197,66.22516556
3.65,-0.071305363,66.22516556
3.651,-0.065240518,66.22516556
3.652,-0.057898862,66.22516556
3.653,-0.050238005,66.22516556
3.654,-0.042896349,66.22516556
3.655,-0.036512301,66.22516556
3.656,-0.032043467,66.22516556
3.657,-0.029170646,66.22516556
3.658,-0.028532241,66.22516556
3.659,-0.029489848,66.22516556
3.66,-0.032043467,66.22516556
3.661,-0.035554694,66.22516556
3.662,-0.04034273,66.22516556
3.663,-0.045449969,66.22516556
3.664,-0.050557207,66.22516556
3.665,-0.055345243,66.22516556
3.666,-0.05885647,66.22516556
3.667,-0.061410089,66.22516556
3.668,-0.062048494,66.22516556
3.669,-0.060771684,66.22516556
3.67,-0.057898862,66.22516556
3.671,-0.053430029,66.22516556
3.672,-0.047684385,66.22516556
3.673,-0.04161954,66.22516556
3.674,-0.035554694,66.22516556
3.675,-0.029809051,66.22516556
3.676,-0.025340217,66.22516556
3.677,-0.022148193,66.22516556
3.678,-0.020552181,66.22516556
3.679,-0.020871383,66.22516556
3.68,-0.022786598,66.22516556
3.681,-0.025978622,66.22516556
3.682,-0.030447455,66.22516556
3.683,-0.034916289,66.22516556
3.684,-0.03906592,66.22516556
3.685,-0.042257944,66.22516556
3.686,-0.044173159,66.22516556
3.687,-0.044492361,66.22516556
3.688,-0.043215552,66.22516556
3.689,-0.040023528,66.22516556
3.69,-0.035235492,66.22516556
3.691,-0.029170646,66.22516556
3.692,-0.022148193,66.22516556
3.693,-0.014806538,66.22516556
3.694,-0.008103287,66.22516556
3.695,-0.002676846,66.22516556
3.696,0.001472785,66.22516556
3.697,0.003707202,66.22516556
3.698,0.003707202,66.22516556
3.699,0.001472785,66.22516556
3.7,-0.002676846,66.22516556
3.701,-0.007784085,66.22516556
3.702,-0.01384893,66.22516556
3.703,-0.020552181,66.22516556
3.704,-0.026617027,66.22516556
3.705,-0.032043467,66.22516556
3.706,-0.036193099,66.22516556
3.707,-0.038427516,66.22516556
3.708,-0.038746718,66.22516556
3.709,-0.036831504,66.22516556
3.71,-0.033001075,66.22516556
3.711,-0.027255431,66.22516556
3.712,-0.020871383,66.22516556
3.713,-0.01384893,66.22516556
3.714,-0.00714568,66.22516556
3.715,-0.000761632,66.22516556
3.716,0.004026404,66.22516556
3.717,0.007218428,66.22516556
3.718,0.00881444,66.22516556
3.719,0.00881444,66.22516556
3.72,0.006899226,66.22516556
3.721,0.003707202,66.22516556
3.722,-0.000761632,66.22516556
3.723,-0.005549668,66.22516556
3.724,-0.010018501,66.22516556
3.725,-0.01384893,66.22516556
3.726,-0.01640255,66.22516556
3.727,-0.017360157,66.22516556
3.728,-0.016721752,66.22516556
3.729,-0.01384893,66.22516556
3.73,-0.009699299,66.22516556
3.731,-0.004272858,66.22516556
3.732,0.00211119,66.22516556
3.733,0.00881444,66.22516556
3.734,0.015517691,66.22516556
3.735,0.021263334,66.22516556
3.736,0.02605137,66.22516556
3.737,0.029243394,66.22516556
3.738,0.030520204,66.22516556
3.739,0.030201002,66.22516556
3.74,0.027966585,66.22516556
3.741,0.024136156,66.22516556
3.742,0.019667322,66.22516556
3.743,0.014240881,66.22516556
3.744,0.009772048,66.22516556
3.745,0.006260821,66.22516556
3.746,0.003707202,66.22516556
3.747,0.003068797,66.22516556
3.748,0.004026404,66.22516556
3.749,0.006899226,66.22516556
3.75,0.01136806,66.22516556
3.751,0.016794501,66.22516556
3.752,0.023178549,66.22516556
3.753,0.029562597,66.22516556
3.754,0.03530824,66.22516556
3.755,0.039777074,66.22516556
3.756,0.042649895,66.22516556
3.757,0.043926705,66.22516556
3.758,0.0432883,66.22516556
3.759,0.040734681,66.22516556
3.76,0.036265847,66.22516556
3.761,0.030520204,66.22516556
3.762,0.023816954,66.22516556
3.763,0.017113703,66.22516556
3.764,0.010729655,66.22516556
3.765,0.005622416,66.22516556
3.766,0.001472785,66.22516556
3.767,-0.001080834,66.22516556
3.768,-0.001080834,66.22516556
3.769,0.00083438,66.22516556
3.77,0.004664809,66.22516556
3.771,0.009452845,66.22516556
3.772,0.015517691,66.22516556
3.773,0.021582537,66.22516556
3.774,0.027008978,66.22516556
3.775,0.031477811,66.22516556
3.776,0.034669835,66.22516556
3.777,0.035946645,66.22516556
3.778,0.03530824,66.22516556
3.779,0.032116216,66.22516556
3.78,0.02732818,66.22516556
3.781,0.020624929,66.22516556
3.782,0.012964072,66.22516556
3.783,0.005303214,66.22516556
3.784,-0.002996049,66.22516556
3.785,-0.010337704,66.22516556
3.786,-0.01640255,66.22516556
3.787,-0.020871383,66.22516556
3.788,-0.023425003,66.22516556
3.789,-0.02438261,66.22516556
3.79,-0.023744205,66.22516556
3.791,-0.02182899,66.22516556
3.792,-0.018636966,66.22516556
3.793,-0.015444942,66.22516556
3.794,-0.012572121,66.22516556
3.795,-0.010656906,66.22516556
3.796,-0.009699299,66.22516556
3.797,-0.010337704,66.22516556
3.798,-0.013210526,66.22516556
3.799,-0.017679359,66.22516556
3.8,-0.023425003,66.22516556
3.801,-0.030766658,66.22516556
3.802,-0.038427516,66.22516556
3.803,-0.046407576,66.22516556
3.804,-0.053749231,66.22516556
3.805,-0.060452482,66.22516556
3.806,-0.06555972,66.22516556
3.807,-0.069070947,66.22516556
3.808,-0.070666959,66.22516556
3.809,-0.070347756,66.22516556
3.81,-0.068113339,66.22516556
3.811,-0.064921315,66.22516556
3.812,-0.061090886,66.22516556
3.813,-0.056941255,66.22516556
3.814,-0.053430029,66.22516556
3.815,-0.051195612,66.22516556
3.816,-0.050238005,66.22516556
3.817,-0.050876409,66.22516556
3.818,-0.053749231,66.22516556
3.819,-0.058537267,66.22516556
3.82,-0.064602113,66.22516556
3.821,-0.072262971,66.22516556
3.822,-0.080243031,66.22516556
3.823,-0.088542293,66.22516556
3.824,-0.096203151,66.22516556
3.825,-0.102906402,66.22516556
3.826,-0.10801364,66.22516556
3.827,-0.111205664,66.22516556
3.828,-0.112163271,66.22516556
3.829,-0.111205664,66.22516556
3.83,-0.108652045,66.22516556
3.831,-0.104502414,66.22516556
3.832,-0.10003358,66.22516556
3.833,-0.094926341,66.22516556
3.834,-0.090457508,66.22516556
3.835,-0.086946281,66.22516556
3.836,-0.084711864,66.22516556
3.837,-0.084711864,66.22516556
3.838,-0.086307876,66.22516556
3.839,-0.090138305,66.22516556
3.84,-0.095564746,66.22516556
3.841,-0.102267997,66.22516556
3.842,-0.109609652,66.22516556
3.843,-0.116951307,66.22516556
3.844,-0.12397376,66.22516556
3.845,-0.129719404,66.22516556
3.846,-0.134188237,66.22516556
3.847,-0.136741857,66.22516556
3.848,-0.137380261,66.22516556
3.849,-0.136103452,66.22516556
3.85,-0.132911428,66.22516556
3.851,-0.128761796,66.22516556
3.852,-0.123654558,66.22516556
3.853,-0.118547319,66.22516556
3.854,-0.114078486,66.22516556
3.855,-0.110567259,66.22516556
3.856,-0.108332842,66.22516556
3.857,-0.107694438,66.22516556
3.858,-0.108971247,66.22516556
3.859,-0.111844069,66.22516556
3.86,-0.116312903,66.22516556
3.861,-0.121739344,66.22516556
3.862,-0.127804189,66.22516556
3.863,-0.134188237,66.22516556
3.864,-0.139614678,66.22516556
3.865,-0.14376431,66.22516556
3.866,-0.146637131,66.22516556
3.867,-0.147913941,66.22516556
3.868,-0.147275536,66.22516556
3.869,-0.144721917,66.22516556
3.87,-0.140572285,66.22516556
3.871,-0.135145845,66.22516556
3.872,-0.129080999,66.22516556
3.873,-0.123016153,66.22516556
3.874,-0.117589712,66.22516556
3.875,-0.113120879,66.22516556
3.876,-0.110567259,66.22516556
3.877,-0.109928855,66.22516556
3.878,-0.111205664,66.22516556
3.879,-0.114716891,66.22516556
3.88,-0.119824129,66.22516556
3.881,-0.125888975,66.22516556
3.882,-0.132911428,66.22516556
3.883,-0.139933881,66.22516556
3.884,-0.146317929,66.22516556
3.885,-0.15174437,66.22516556
3.886,-0.155574799,66.22516556
3.887,-0.157490013,66.22516556
3.888,-0.157490013,66.22516556
3.889,-0.155255596,66.22516556
3.89,-0.151425167,66.22516556
3.891,-0.145998726,66.22516556
3.892,-0.139614678,66.22516556
3.893,-0.132592225,66.22516556
3.894,-0.126208177,66.22516556
3.895,-0.120781736,66.22516556
3.896,-0.116951307,66.22516556
3.897,-0.115036093,66.22516556
3.898,-0.114716891,66.22516556
3.899,-0.116312903,66.22516556
3.9,-0.119504927,66.22516556
3.901,-0.12397376,66.22516556
3.902,-0.129080999,66.22516556
3.903,-0.134188237,66.22516556
3.904,-0.139295476,66.22516556
3.905,-0.14376431,66.22516556
3.906,-0.146637131,66.22516556
3.907,-0.148233143,66.22516556
3.908,-0.147913941,66.22516556
3.909,-0.145998726,66.22516556
3.91,-0.142806702,66.22516556
3.911,-0.138337869,66.22516556
3.912,-0.13323063,66.22516556
3.913,-0.127804189,66.22516556
3.914,-0.123016153,66.22516556
3.915,-0.119185724,66.22516556
3.916,-0.116951307,66.22516556
3.917,-0.1159937,66.22516556
3.918,-0.116951307,66.22516556
3.919,-0.119185724,66.22516556
3.92,-0.122696951,66.22516556
3.921,-0.126846582,66.22516556
3.922,-0.131315416,66.22516556
3.923,-0.135784249,66.22516556
3.924,-0.139933881,66.22516556
3.925,-0.142806702,66.22516556
3.926,-0.144402714,66.22516556
3.927,-0.144721917,66.22516556
3.928,-0.143125905,66.22516556
3.929,-0.139933881,66.22516556
3.93,-0.135465047,66.22516556
3.931,-0.130357808,66.22516556
3.932,-0.124612165,66.22516556
3.933,-0.118866522,66.22516556
3.934,-0.113759283,66.22516556
3.935,-0.109928855,66.22516556
3.936,-0.107375235,66.22516556
3.937,-0.107056033,66.22516556
3.938,-0.108332842,66.22516556
3.939,-0.111205664,66.22516556
3.94,-0.115674498,66.22516556
3.941,-0.121420141,66.22516556
3.942,-0.127165784,66.22516556
3.943,-0.13323063,66.22516556
3.944,-0.138337869,66.22516556
3.945,-0.142168297,66.22516556
3.946,-0.144083512,66.22516556
3.947,-0.144083512,66.22516556
3.948,-0.1424875,66.22516556
3.949,-0.138976273,66.22516556
3.95,-0.133869035,66.22516556
3.951,-0.127484987,66.22516556
3.952,-0.120781736,66.22516556
3.953,-0.114397688,66.22516556
3.954,-0.108652045,66.22516556
3.955,-0.104502414,66.22516556
3.956,-0.101948794,66.22516556
3.957,-0.100991187,66.22516556
3.958,-0.102267997,66.22516556
3.959,-0.105460021,66.22516556
3.96,-0.110248057,66.22516556
3.961,-0.1159937,66.22516556
3.962,-0.122696951,66.22516556
3.963,-0.129080999,66.22516556
3.964,-0.134826642,66.22516556
3.965,-0.139295476,66.22516556
3.966,-0.142806702,66.22516556
3.967,-0.144083512,66.22516556
3.968,-0.14376431,66.22516556
3.969,-0.141529893,66.22516556
3.97,-0.137699464,66.22516556
3.971,-0.132592225,66.22516556
3.972,-0.126846582,66.22516556
3.973,-0.120781736,66.22516556
3.974,-0.115674498,66.22516556
3.975,-0.111205664,66.22516556
3.976,-0.108332842,66.22516556
3.977,-0.107056033,66.22516556
3.978,-0.107375235,66.22516556
3.979,-0.109609652,66.22516556
3.98,-0.113120879,66.22516556
3.981,-0.117908915,66.22516556
3.982,-0.123016153,66.22516556
3.983,-0.127804189,66.22516556
3.984,-0.132273023,66.22516556
3.985,-0.135784249,66.22516556
3.986,-0.137380261,66.22516556
3.987,-0.137380261,66.22516556
3.988,-0.135465047,66.22516556
3.989,-0.132273023,66.22516556
3.99,-0.127484987,66.22516556
3.991,-0.122058546,66.22516556
3.992,-0.116312903,66.22516556
3.993,-0.110886462,66.22516556
3.994,-0.106098426,66.22516556
3.995,-0.102267997,66.22516556
3.996,-0.10003358,66.22516556
3.997,-0.099714378,66.22516556
3.998,-0.101629592,66.22516556
3.999,-0.105140818,66.22516556
4,-0.110248057,66.22516556
4.001,-0.116312903,66.22516556
4.002,-0.123335356,66.22516556
4.003,-0.129719404,66.22516556
4.004,-0.135784249,66.22516556
4.005,-0.140253083,66.22516556
4.006,-0.143125905,66.22516556
4.007,-0.144083512,66.22516556
4.008,-0.143125905,66.22516556
4.009,-0.140253083,66.22516556
4.01,-0.136103452,66.22516556
4.011,-0.130677011,66.22516556
4.012,-0.124931368,66.22516556
4.013,-0.119185724,66.22516556
4.014,-0.114397688,66.22516556
4.015,-0.110886462,66.22516556
4.016,-0.108971247,66.22516556
4.017,-0.10929045,66.22516556
4.018,-0.111205664,66.22516556
4.019,-0.115036093,66.22516556
4.02,-0.119824129,66.22516556
4.021,-0.125888975,66.22516556
4.022,-0.132273023,66.22516556
4.023,-0.138337869,66.22516556
4.024,-0.143445107,66.22516556
4.025,-0.147594738,66.22516556
4.026,-0.150148358,66.22516556
4.027,-0.15046756,66.22516556
4.028,-0.14919075,66.22516556
4.029,-0.145998726,66.22516556
4.03,-0.14121069,66.22516556
4.031,-0.135145845,66.22516556
4.032,-0.128761796,66.22516556
4.033,-0.122377748,66.22516556
4.034,-0.116632105,66.22516556
4.035,-0.112482474,66.22516556
4.036,-0.109609652,66.22516556
4.037,-0.108971247,66.22516556
4.038,-0.110248057,66.22516556
4.039,-0.113440081,66.22516556
4.04,-0.118228117,66.22516556
4.041,-0.12397376,66.22516556
4.042,-0.130357808,66.22516556
4.043,-0.136741857,66.22516556
4.044,-0.142168297,66.22516556
4.045,-0.146637131,66.22516556
4.046,-0.149829155,66.22516556
4.047,-0.151105965,66.22516556
4.048,-0.15046756,66.22516556
4.049,-0.148233143,66.22516556
4.05,-0.144083512,66.22516556
4.051,-0.138976273,66.22516556
4.052,-0.133549833,66.22516556
4.053,-0.128123392,66.22516556
4.054,-0.123654558,66.22516556
4.055,-0.120143331,66.22516556
4.056,-0.118228117,66.22516556
4.057,-0.117908915,66.22516556
4.058,-0.119185724,66.22516556
4.059,-0.122377748,66.22516556
4.06,-0.126846582,66.22516556
4.061,-0.131953821,66.22516556
4.062,-0.137380261,66.22516556
4.063,-0.142806702,66.22516556
4.064,-0.147275536,66.22516556
4.065,-0.151105965,66.22516556
4.066,-0.153021179,66.22516556
4.067,-0.153021179,66.22516556
4.068,-0.151105965,66.22516556
4.069,-0.147594738,66.22516556
4.07,-0.142806702,66.22516556
4.071,-0.137061059,66.22516556
4.072,-0.130996213,66.22516556
4.073,-0.125569772,66.22516556
4.074,-0.120781736,66.22516556
4.075,-0.116951307,66.22516556
4.076,-0.115355295,66.22516556
4.077,-0.115355295,66.22516556
4.078,-0.11727051,66.22516556
4.079,-0.120781736,66.22516556
4.08,-0.125569772,66.22516556
4.081,-0.130996213,66.22516556
4.082,-0.136741857,66.22516556
4.083,-0.142168297,66.22516556
4.084,-0.146637131,66.22516556
4.085,-0.149829155,66.22516556
4.086,-0.151425167,66.22516556
4.087,-0.150786762,66.22516556
4.088,-0.148552346,66.22516556
4.089,-0.144721917,66.22516556
4.09,-0.139295476,66.22516556
4.091,-0.13323063,66.22516556
4.092,-0.12652738,66.22516556
4.093,-0.120462534,66.22516556
4.094,-0.115355295,66.22516556
4.095,-0.111205664,66.22516556
4.096,-0.108971247,66.22516556
4.097,-0.108971247,66.22516556
4.098,-0.110567259,66.22516556
4.099,-0.113759283,66.22516556
4.1,-0.118547319,66.22516556
4.101,-0.12397376,66.22516556
4.102,-0.129719404,66.22516556
4.103,-0.135465047,66.22516556
4.104,-0.140253083,66.22516556
4.105,-0.144083512,66.22516556
4.106,-0.146317929,66.22516556
4.107,-0.146956334,66.22516556
4.108,-0.145360322,66.22516556
4.109,-0.142168297,66.22516556
4.11,-0.137699464,66.22516556
4.111,-0.132273023,66.22516556
4.112,-0.126846582,66.22516556
4.113,-0.121739344,66.22516556
4.114,-0.117589712,66.22516556
4.115,-0.114397688,66.22516556
4.116,-0.113440081,66.22516556
4.117,-0.114078486,66.22516556
4.118,-0.116312903,66.22516556
4.119,-0.120143331,66.22516556
4.12,-0.12525057,66.22516556
4.121,-0.130996213,66.22516556
4.122,-0.136741857,66.22516556
4.123,-0.1424875,66.22516556
4.124,-0.147275536,66.22516556
4.125,-0.15046756,66.22516556
4.126,-0.152063572,66.22516556
4.127,-0.151425167,66.22516556
4.128,-0.14919075,66.22516556
4.129,-0.145041119,66.22516556
4.13,-0.139614678,66.22516556
4.131,-0.13323063,66.22516556
4.132,-0.127165784,66.22516556
4.133,-0.121100939,66.22516556
4.134,-0.116312903,66.22516556
4.135,-0.113120879,66.22516556
4.136,-0.111205664,66.22516556
4.137,-0.111205664,66.22516556
4.138,-0.113120879,66.22516556
4.139,-0.116312903,66.22516556
4.14,-0.121100939,66.22516556
4.141,-0.126846582,66.22516556
4.142,-0.132592225,66.22516556
4.143,-0.138337869,66.22516556
4.144,-0.143445107,66.22516556
4.145,-0.146956334,66.22516556
4.146,-0.148552346,66.22516556
4.147,-0.148552346,66.22516556
4.148,-0.146317929,66.22516556
4.149,-0.142806702,66.22516556
4.15,-0.137699464,66.22516556
4.151,-0.132273023,66.22516556
4.152,-0.12652738,66.22516556
4.153,-0.121420141,66.22516556
4.154,-0.117589712,66.22516556
4.155,-0.115036093,66.22516556
4.156,-0.113759283,66.22516556
4.157,-0.114397688,66.22516556
4.158,-0.116312903,66.22516556
4.159,-0.120143331,66.22516556
4.16,-0.124931368,66.22516556
4.161,-0.130357808,66.22516556
4.162,-0.136103452,66.22516556
4.163,-0.14121069,66.22516556
4.164,-0.145041119,66.22516556
4.165,-0.147913941,66.22516556
4.166,-0.148552346,66.22516556
4.167,-0.147594738,66.22516556
4.168,-0.144402714,66.22516556
4.169,-0.139295476,66.22516556
4.17,-0.13323063,66.22516556
4.171,-0.12652738,66.22516556
4.172,-0.119824129,66.22516556
4.173,-0.113759283,66.22516556
4.174,-0.108332842,66.22516556
4.175,-0.104821616,66.22516556
4.176,-0.102906402,66.22516556
4.177,-0.102906402,66.22516556
4.178,-0.105140818,66.22516556
4.179,-0.108971247,66.22516556
4.18,-0.114078486,66.22516556
4.181,-0.120143331,66.22516556
4.182,-0.12652738,66.22516556
4.183,-0.132273023,66.22516556
4.184,-0.137380261,66.22516556
4.185,-0.140891488,66.22516556
4.186,-0.142806702,66.22516556
4.187,-0.142806702,66.22516556
4.188,-0.140572285,66.22516556
4.189,-0.136422654,66.22516556
4.19,-0.131315416,66.22516556
4.191,-0.124931368,66.22516556
4.192,-0.118547319,66.22516556
4.193,-0.112801676,66.22516556
4.194,-0.108332842,66.22516556
4.195,-0.105140818,66.22516556
4.196,-0.103864009,66.22516556
4.197,-0.104502414,66.22516556
4.198,-0.107056033,66.22516556
4.199,-0.110886462,66.22516556
4.2,-0.1159937,66.22516556
4.201,-0.121739344,66.22516556
4.202,-0.127804189,66.22516556
4.203,-0.13323063,66.22516556
4.204,-0.138018666,66.22516556
4.205,-0.141529893,66.22516556
4.206,-0.143125905,66.22516556
4.207,-0.1424875,66.22516556
4.208,-0.140253083,66.22516556
4.209,-0.135784249,66.22516556
4.21,-0.130038606,66.22516556
4.211,-0.123654558,66.22516556
4.212,-0.116951307,66.22516556
4.213,-0.110567259,66.22516556
4.214,-0.105779223,66.22516556
4.215,-0.102267997,66.22516556
4.216,-0.100991187,66.22516556
4.217,-0.101948794,66.22516556
4.218,-0.104821616,66.22516556
4.219,-0.109609652,66.22516556
4.22,-0.115355295,66.22516556
4.221,-0.122058546,66.22516556
4.222,-0.128442594,66.22516556
4.223,-0.13450744,66.22516556
4.224,-0.139933881,66.22516556
4.225,-0.14376431,66.22516556
4.226,-0.145998726,66.22516556
4.227,-0.146317929,66.22516556
4.228,-0.145041119,66.22516556
4.229,-0.141849095,66.22516556
4.23,-0.137380261,66.22516556
4.231,-0.131953821,66.22516556
4.232,-0.12652738,66.22516556
4.233,-0.121100939,66.22516556
4.234,-0.116312903,66.22516556
4.235,-0.112801676,66.22516556
4.236,-0.110886462,66.22516556
4.237,-0.110886462,66.22516556
4.238,-0.112163271,66.22516556
4.239,-0.115355295,66.22516556
4.24,-0.119504927,66.22516556
4.241,-0.124292963,66.22516556
4.242,-0.129400201,66.22516556
4.243,-0.133549833,66.22516556
4.244,-0.136422654,66.22516556
4.245,-0.138018666,66.22516556
4.246,-0.137699464,66.22516556
4.247,-0.135465047,66.22516556
4.248,-0.131315416,66.22516556
4.249,-0.125888975,66.22516556
4.25,-0.119824129,66.22516556
4.251,-0.113120879,66.22516556
4.252,-0.10673683,66.22516556
4.253,-0.100991187,66.22516556
4.254,-0.096841556,66.22516556
4.255,-0.094287937,66.22516556
4.256,-0.093649532,66.22516556
4.257,-0.095245544,66.22516556
4.258,-0.09875677,66.22516556
4.259,-0.103544806,66.22516556
4.26,-0.109609652,66.22516556
4.261,-0.1159937,66.22516556
4.262,-0.122377748,66.22516556
4.263,-0.128123392,66.22516556
4.264,-0.132592225,66.22516556
4.265,-0.135784249,66.22516556
4.266,-0.136741857,66.22516556
4.267,-0.136103452,66.22516556
4.268,-0.13323063,66.22516556
4.269,-0.128761796,66.22516556
4.27,-0.123016153,66.22516556
4.271,-0.116632105,66.22516556
4.272,-0.110248057,66.22516556
4.273,-0.104183211,66.22516556
4.274,-0.099395175,66.22516556
4.275,-0.095883949,66.22516556
4.276,-0.094607139,66.22516556
4.277,-0.095245544,66.22516556
4.278,-0.097479961,66.22516556
4.279,-0.100991187,66.22516556
4.28,-0.105460021,66.22516556
4.281,-0.109928855,66.22516556
4.282,-0.114397688,66.22516556
4.283,-0.118228117,66.22516556
4.284,-0.121100939,66.22516556
4.285,-0.122377748,66.22516556
4.286,-0.121739344,66.22516556
4.287,-0.119504927,66.22516556
4.288,-0.115674498,66.22516556
4.289,-0.110567259,66.22516556
4.29,-0.104183211,66.22516556
4.291,-0.097799163,66.22516556
4.292,-0.091734317,66.22516556
4.293,-0.086627079,66.22516556
4.294,-0.083115852,66.22516556
4.295,-0.08151984,66.22516556
4.296,-0.081839043,66.22516556
4.297,-0.084711864,66.22516556
4.298,-0.089180698,66.22516556
4.299,-0.095564746,66.22516556
4.3,-0.102906402,66.22516556
4.301,-0.110886462,66.22516556
4.302,-0.118866522,66.22516556
4.303,-0.125888975,66.22516556
4.304,-0.132273023,66.22516556
4.305,-0.137061059,66.22516556
4.306,-0.140253083,66.22516556
4.307,-0.14121069,66.22516556
4.308,-0.140572285,66.22516556
4.309,-0.138337869,66.22516556
4.31,-0.134826642,66.22516556
4.311,-0.130357808,66.22516556
4.312,-0.126208177,66.22516556
4.313,-0.122377748,66.22516556
4.314,-0.119824129,66.22516556
4.315,-0.118547319,66.22516556
4.316,-0.118866522,66.22516556
4.317,-0.120781736,66.22516556
4.318,-0.12397376,66.22516556
4.319,-0.128123392,66.22516556
4.32,-0.13323063,66.22516556
4.321,-0.138018666,66.22516556
4.322,-0.1424875,66.22516556
4.323,-0.145998726,66.22516556
4.324,-0.148233143,66.22516556
4.325,-0.148552346,66.22516556
4.326,-0.147275536,66.22516556
4.327,-0.144083512,66.22516556
4.328,-0.139614678,66.22516556
4.329,-0.133869035,66.22516556
4.33,-0.127484987,66.22516556
4.331,-0.120462534,66.22516556
4.332,-0.114078486,66.22516556
4.333,-0.108652045,66.22516556
4.334,-0.104821616,66.22516556
4.335,-0.102906402,66.22516556
4.336,-0.102906402,66.22516556
4.337,-0.104821616,66.22516556
4.338,-0.108971247,66.22516556
4.339,-0.114716891,66.22516556
4.34,-0.122058546,66.22516556
4.341,-0.130038606,66.22516556
4.342,-0.138337869,66.22516556
4.343,-0.146317929,66.22516556
4.344,-0.153978787,66.22516556
4.345,-0.160043632,66.22516556
4.346,-0.164512466,66.22516556
4.347,-0.167066085,66.22516556
4.348,-0.16770449,66.22516556
4.349,-0.167066085,66.22516556
4.35,-0.165470073,66.22516556
4.351,-0.162916454,66.22516556
4.352,-0.160362835,66.22516556
4.353,-0.157490013,66.22516556
4.354,-0.155255596,66.22516556
4.355,-0.153021179,66.22516556
4.356,-0.150786762,66.22516556
4.357,-0.148871548,66.22516556
4.358,-0.146317929,66.22516556
4.359,-0.142806702,66.22516556
4.36,-0.137699464,66.22516556
4.361,-0.130357808,66.22516556
4.362,-0.120143331,66.22516556
4.363,-0.106417628,66.22516556
4.364,-0.088861496,66.22516556
4.365,-0.06683653,66.22516556
4.366,-0.040023528,66.22516556
4.367,-0.008103287,66.22516556
4.368,0.02860499,66.22516556
4.369,0.070739707,66.22516556
4.37,0.117024056,66.22516556
4.371,0.167138834,66.22516556
4.372,0.220445636,66.22516556
4.373,0.276306057,66.22516556
4.374,0.334400894,66.22516556
4.375,0.393134137,66.22516556
4.376,0.45186738,66.22516556
4.377,0.509323813,66.22516556
4.378,0.564545829,66.22516556
4.379,0.615618214,66.22516556
4.38,0.662221765,66.22516556
4.381,0.70403728,66.22516556
4.382,0.740107152,66.22516556
4.383,0.771069786,66.22516556
4.384,0.796286776,66.22516556
4.385,0.815119718,66.22516556
4.386,0.827249409,66.22516556
4.387,0.831718243,66.22516556
4.388,0.828207016,66.22516556
4.389,0.816396527,66.22516556
4.39,0.795329169,66.22516556
4.391,0.76500494,66.22516556
4.392,0.725743044,66.22516556
4.393,0.677543481,66.22516556
4.394,0.62168306,66.22516556
4.395,0.559438591,66.22516556
4.396,0.491448478,70.5052879
4.397,0.419308734,70.5052879
4.398,0.344934574,70.5052879
4.399,0.269283604,70.5052879
4.4,0.193632633,70.5052879
4.401,0.119258473,70.5052879
4.402,0.047118729,70.5052879
4.403,-0.021190586,70.5052879
4.404,-0.085988674,70.5052879
4.405,-0.145679524,70.5052879
4.406,-0.199624731,70.5052879
4.407,-0.246866687,70.5052879
4.408,-0.28708619,70.5052879
4.409,-0.32028324,70.5052879
4.41,-0.347096242,70.5052879
4.411,-0.368163601,70.5052879
4.412,-0.383804519,70.5052879
4.413,-0.394338198,70.5052879
4.414,-0.400722246,70.5052879
4.415,-0.402956663,70.5052879
4.416,-0.401999056,70.5052879
4.417,-0.398168627,70.5052879
4.418,-0.391146174,70.5052879
4.419,-0.381570102,70.5052879
4.42,-0.36944041,70.5052879
4.421,-0.3547571,70.5052879
4.422,-0.33752017,70.5052879
4.423,-0.318048823,70.5052879
4.424,-0.296662262,70.5052879
4.425,-0.273998891,70.5052879
4.426,-0.250058711,70.5052879
4.427,-0.22611853,70.5052879
4.428,-0.20217835,70.5052879
4.429,-0.179514979,70.5052879
4.43,-0.159086025,70.5052879
4.431,-0.140891488,70.5052879
4.432,-0.126208177,70.5052879
4.433,-0.114716891,70.5052879
4.434,-0.107375235,70.5052879
4.435,-0.103864009,70.5052879
4.436,-0.104183211,70.5052879
4.437,-0.107694438,70.5052879
4.438,-0.114078486,70.5052879
4.439,-0.122696951,70.5052879
4.44,-0.132273023,70.5052879
4.441,-0.1424875,70.5052879
4.442,-0.152063572,70.5052879
4.443,-0.160362835,70.5052879
4.444,-0.166746883,70.5052879
4.445,-0.170896514,70.5052879
4.446,-0.172492526,70.5052879
4.447,-0.171534919,70.5052879
4.448,-0.168023692,70.5052879
4.449,-0.163235656,70.5052879
4.45,-0.156851608,70.5052879
4.451,-0.150148358,70.5052879
4.452,-0.14376431,70.5052879
4.453,-0.138018666,70.5052879
4.454,-0.133549833,70.5052879
4.455,-0.130357808,70.5052879
4.456,-0.129080999,70.5052879
4.457,-0.129400201,70.5052879
4.458,-0.131315416,70.5052879
4.459,-0.13450744,70.5052879
4.46,-0.138657071,70.5052879
4.461,-0.142806702,70.5052879
4.462,-0.146956334,70.5052879
4.463,-0.15046756,70.5052879
4.464,-0.152701977,70.5052879
4.465,-0.153340382,70.5052879
4.466,-0.152063572,70.5052879
4.467,-0.148871548,70.5052879
4.468,-0.144402714,70.5052879
4.469,-0.138657071,70.5052879
4.47,-0.131953821,70.5052879
4.471,-0.125569772,70.5052879
4.472,-0.119185724,70.5052879
4.473,-0.114078486,70.5052879
4.474,-0.110248057,70.5052879
4.475,-0.10801364,70.5052879
4.476,-0.107694438,70.5052879
4.477,-0.10929045,70.5052879
4.478,-0.112801676,70.5052879
4.479,-0.11727051,70.5052879
4.48,-0.122377748,70.5052879
4.481,-0.127484987,70.5052879
4.482,-0.132273023,70.5052879
4.483,-0.135784249,70.5052879
4.484,-0.138337869,70.5052879
4.485,-0.139295476,70.5052879
4.486,-0.138018666,70.5052879
4.487,-0.135145845,70.5052879
4.488,-0.130677011,70.5052879
4.489,-0.124931368,70.5052879
4.49,-0.118228117,70.5052879
4.491,-0.111524867,70.5052879
4.492,-0.105460021,70.5052879
4.493,-0.10003358,70.5052879
4.494,-0.096522353,70.5052879
4.495,-0.094287937,70.5052879
4.496,-0.094287937,70.5052879
4.497,-0.096203151,70.5052879
4.498,-0.099395175,70.5052879
4.499,-0.103544806,70.5052879
4.5,-0.108652045,70.5052879
4.501,-0.113440081,70.5052879
4.502,-0.118228117,70.5052879
4.503,-0.122058546,70.5052879
4.504,-0.124292963,70.5052879
4.505,-0.12525057,70.5052879
4.506,-0.12397376,70.5052879
4.507,-0.121100939,70.5052879
4.508,-0.116951307,70.5052879
4.509,-0.111524867,70.5052879
4.51,-0.105140818,70.5052879
4.511,-0.09875677,70.5052879
4.512,-0.092691925,70.5052879
4.513,-0.087584686,70.5052879
4.514,-0.08407346,70.5052879
4.515,-0.081839043,70.5052879
