Time,"CH 1, ECG","CH40, Heart Rate"
sec,mV,BPM
0,0.006278191,0
0.001,0.006278191,0
0.002,0.006278191,0
0.003,0.005639729,0
0.004,0.004043573,0
0.005,0.001489723,0
0.006,-0.002341051,0
0.007,-0.007448751,0
0.008,-0.013194913,0
0.009,-0.019898768,0
0.01,-0.027241086,0
0.011,-0.034902635,0
0.012,-0.042883415,0
0.013,-0.050864196,0
0.014,-0.058206513,0
0.015,-0.0652296,0
0.016,-0.071294993,0
0.017,-0.076083461,0
0.018,-0.079914236,0
0.019,-0.082468086,0
0.02,-0.08374501,0
0.021,-0.08374501,0
0.022,-0.082787317,0
0.023,-0.080871929,0
0.024,-0.07831808,0
0.025,-0.07576423,0
0.026,-0.072891149,0
0.027,-0.070337299,0
0.028,-0.068421912,0
0.029,-0.067144987,0
0.03,-0.067144987,0
0.031,-0.068102681,0
0.032,-0.070337299,0
0.033,-0.073529612,0
0.034,-0.077041155,0
0.035,-0.080871929,0
0.036,-0.084383473,0
0.037,-0.087575785,0
0.038,-0.089810403,0
0.039,-0.091406559,0
0.04,-0.091725791,0
0.041,-0.091406559,0
0.042,-0.090129635,0
0.043,-0.087895016,0
0.044,-0.085341166,0
0.045,-0.082468086,0
0.046,-0.079914236,0
0.047,-0.077041155,0
0.048,-0.075125768,0
0.049,-0.073529612,0
0.05,-0.072891149,0
0.051,-0.072891149,0
0.052,-0.074168074,0
0.053,-0.076402693,0
0.054,-0.078956542,0
0.055,-0.082468086,0
0.056,-0.085660398,0
0.057,-0.089171941,0
0.058,-0.092364253,0
0.059,-0.094598872,0
0.06,-0.096195028,0
0.061,-0.09683349,0
0.062,-0.096514259,0
0.063,-0.095556565,0
0.064,-0.093960409,0
0.065,-0.092045022,0
0.066,-0.090448866,0
0.067,-0.08885271,0
0.068,-0.087575785,0
0.069,-0.086937323,0
0.07,-0.086937323,0
0.071,-0.087575785,0
0.072,-0.08885271,0
0.073,-0.090768097,0
0.074,-0.093002716,0
0.075,-0.095556565,0
0.076,-0.098110415,0
0.077,-0.100345033,0
0.078,-0.101621958,0
0.079,-0.102579652,0
0.08,-0.102579652,0
0.081,-0.101621958,0
0.082,-0.100025802,0
0.083,-0.097791184,0
0.084,-0.095237334,0
0.085,-0.092683484,0
0.086,-0.090129635,0
0.087,-0.088214247,0
0.088,-0.08629886,0
0.089,-0.085341166,0
0.09,-0.085341166,0
0.091,-0.085979629,0
0.092,-0.087575785,0
0.093,-0.089491172,0
0.094,-0.092045022,0
0.095,-0.09427964,0
0.096,-0.096514259,0
0.097,-0.098748877,0
0.098,-0.100025802,0
0.099,-0.100345033,0
0.1,-0.09938734,0
0.101,-0.097791184,0
0.102,-0.095237334,0
0.103,-0.092045022,0
0.104,-0.088533479,0
0.105,-0.085021935,0
0.106,-0.081829623,0
0.107,-0.078637311,0
0.108,-0.076083461,0
0.109,-0.074168074,0
0.11,-0.07321038,0
0.111,-0.073529612,0
0.112,-0.075125768,0
0.113,-0.077679617,0
0.114,-0.080552698,0
0.115,-0.08374501,0
0.116,-0.086618091,0
0.117,-0.089491172,0
0.118,-0.092045022,0
0.119,-0.093641178,0
0.12,-0.094598872,0
0.121,-0.094918103,0
0.122,-0.09427964,0
0.123,-0.093002716,0
0.124,-0.091087328,0
0.125,-0.08885271,0
0.126,-0.08629886,0
0.127,-0.084383473,0
0.128,-0.082787317,0
0.129,-0.081829623,0
0.13,-0.081510392,0
0.131,-0.082468086,0
0.132,-0.08374501,0
0.133,-0.085979629,0
0.134,-0.08885271,0
0.135,-0.091725791,0
0.136,-0.094918103,0
0.137,-0.098110415,0
0.138,-0.100664265,0
0.139,-0.102260421,0
0.14,-0.103218114,0
0.141,-0.103218114,0
0.142,-0.102260421,0
0.143,-0.100345033,0
0.144,-0.098110415,0
0.145,-0.095237334,0
0.146,-0.093002716,0
0.147,-0.090768097,0
0.148,-0.08885271,0
0.149,-0.087575785,0
0.15,-0.086937323,0
0.151,-0.086618091,0
0.152,-0.087256554,0
0.153,-0.088214247,0
0.154,-0.089810403,0
0.155,-0.091725791,0
0.156,-0.093641178,0
0.157,-0.095237334,0
0.158,-0.096514259,0
0.159,-0.09683349,0
0.16,-0.096195028,0
0.161,-0.095237334,0
0.162,-0.093321947,0
0.163,-0.091406559,0
0.164,-0.088533479,0
0.165,-0.085979629,0
0.166,-0.083106548,0
0.167,-0.080871929,0
0.168,-0.079275773,0
0.169,-0.07831808,0
0.17,-0.077998849,0
0.171,-0.078637311,0
0.172,-0.079914236,0
0.173,-0.081829623,0
0.174,-0.08374501,0
0.175,-0.085660398,0
0.176,-0.087575785,0
0.177,-0.08885271,0
0.178,-0.089810403,0
0.179,-0.089810403,0
0.18,-0.08885271,0
0.181,-0.086937323,0
0.182,-0.084383473,0
0.183,-0.080871929,0
0.184,-0.076721924,0
0.185,-0.072571918,0
0.186,-0.068102681,0
0.187,-0.064271906,0
0.188,-0.060760363,0
0.189,-0.058206513,0
0.19,-0.056291126,0
0.191,-0.055333433,0
0.192,-0.055333433,0
0.193,-0.055652664,0
0.194,-0.056929589,0
0.195,-0.057887282,0
0.196,-0.059164207,0
0.197,-0.060121901,0
0.198,-0.060441132,0
0.199,-0.060121901,0
0.2,-0.059164207,0
0.201,-0.05724882,0
0.202,-0.055014201,0
0.203,-0.05214112,0
0.204,-0.048948808,0
0.205,-0.045756496,0
0.206,-0.042883415,0
0.207,-0.040329566,0
0.208,-0.038414178,0
0.209,-0.037137253,0
0.21,-0.036498791,0
0.211,-0.037137253,0
0.212,-0.038414178,0
0.213,-0.040648797,0
0.214,-0.043521878,0
0.215,-0.046394959,0
0.216,-0.049268039,0
0.217,-0.051502658,0
0.218,-0.053737276,0
0.219,-0.055014201,0
0.22,-0.055333433,0
0.221,-0.05469497,0
0.222,-0.053098814,0
0.223,-0.050544964,0
0.224,-0.047991115,0
0.225,-0.045118034,0
0.226,-0.042564184,0
0.227,-0.040010334,0
0.228,-0.037775716,0
0.229,-0.03617956,0
0.23,-0.034902635,0
0.231,-0.034902635,0
0.232,-0.035541097,0
0.233,-0.037137253,0
0.234,-0.039052641,0
0.235,-0.041287259,0
0.236,-0.043521878,0
0.237,-0.045756496,0
0.238,-0.047352652,0
0.239,-0.048629577,0
0.24,-0.048629577,0
0.241,-0.048310346,0
0.242,-0.047671883,0
0.243,-0.046394959,0
0.244,-0.044479571,0
0.245,-0.042564184,0
0.246,-0.040329566,0
0.247,-0.038733409,0
0.248,-0.037456485,0
0.249,-0.036818022,0
0.25,-0.036498791,0
0.251,-0.036498791,0
0.252,-0.036818022,0
0.253,-0.037775716,0
0.254,-0.038733409,0
0.255,-0.039371872,0
0.256,-0.040010334,0
0.257,-0.039691103,0
0.258,-0.039052641,0
0.259,-0.037137253,0
0.26,-0.034583404,0
0.261,-0.03107186,0
0.262,-0.026602623,0
0.263,-0.021494924,0
0.264,-0.016067993,0
0.265,-0.010960294,0
0.266,-0.006171826,0
0.267,-0.00202182,0
0.268,0.001489723,0
0.269,0.004043573,0
0.27,0.005639729,0
0.271,0.006278191,0
0.272,0.006597423,0
0.273,0.006278191,0
0.274,0.006278191,0
0.275,0.005639729,0
0.276,0.005320498,0
0.277,0.005639729,0
0.278,0.006597423,0
0.279,0.008193579,0
0.28,0.01106666,0
0.281,0.014897434,0
0.282,0.019366671,0
0.283,0.024793602,0
0.284,0.030539764,0
0.285,0.036605157,0
0.286,0.042351318,0
0.287,0.047778249,0
0.288,0.052885948,0
0.289,0.057035954,0
0.29,0.059909035,0
0.291,0.061505191,0
0.292,0.061824422,0
0.293,0.061505191,0
0.294,0.060228266,0
0.295,0.05863211,0
0.296,0.057035954,0
0.297,0.055759029,0
0.298,0.055439798,0
0.299,0.055759029,0
0.3,0.057355185,0
0.301,0.060228266,0
0.302,0.06373981,0
0.303,0.068209047,0
0.304,0.072997515,0
0.305,0.078105214,0
0.306,0.082893682,0
0.307,0.087682151,0
0.308,0.091832156,0
0.309,0.0953437,0
0.31,0.097897549,0
0.311,0.099493705,0
0.312,0.100132168,0
0.313,0.099493705,0
0.314,0.097897549,0
0.315,0.095662931,0
0.316,0.092470619,0
0.317,0.089278307,0
0.318,0.085766763,0
0.319,0.081935989,0
0.32,0.078424445,0
0.321,0.075232133,0
0.322,0.072359052,0
0.323,0.069805203,0
0.324,0.067251353,0
0.325,0.064697503,0
0.326,0.061824422,0
0.327,0.058951341,0
0.328,0.055120567,0
0.329,0.050970561,0
0.33,0.046182093,0
0.331,0.040755162,0
0.332,0.035009001,0
0.333,0.028943607,0
0.334,0.022878214,0
0.335,0.017451284,0
0.336,0.012662816,0
0.337,0.008832041,0
0.338,0.006278191,0
0.339,0.004362804,0
0.34,0.003724342,0
0.341,0.004362804,0
0.342,0.005639729,0
0.343,0.007555116,0
0.344,0.010428197,0
0.345,0.013301278,0
0.346,0.01649359,0
0.347,0.019685902,0
0.348,0.021920521,0
0.349,0.023516677,0
0.35,0.024474371,0
0.351,0.024155139,0
0.352,0.023197446,0
0.353,0.021282058,0
0.354,0.019366671,0
0.355,0.016812821,0
0.356,0.014258972,0
0.357,0.011705122,0
0.358,0.009151272,0
0.359,0.006597423,0
0.36,0.004682035,0
0.361,0.002766648,0
0.362,0.000851261,0
0.363,-0.001064126,0
0.364,-0.003298745,0
0.365,-0.005533363,0
0.366,-0.008406444,0
0.367,-0.011598756,0
0.368,-0.014791069,0
0.369,-0.018621843,0
0.37,-0.022133386,0
0.371,-0.02564493,0
0.372,-0.028198779,0
0.373,-0.029475704,0
0.374,-0.029156473,0
0.375,-0.026602623,0
0.376,-0.020856462,0
0.377,-0.011598756,0
0.378,0.001489723,0
0.379,0.018408977,0
0.38,0.040435931,0
0.381,0.066612891,0
0.382,0.097897549,0
0.383,0.133651445,0
0.384,0.173874578,0
0.385,0.218566947,0
0.386,0.267090092,0
0.387,0.319444011,0
0.388,0.374990241,0
0.389,0.433409553,0
0.39,0.494382715,0
0.391,0.557590495,0
0.392,0.621436737,0
0.393,0.685602211,0
0.394,0.747852297,0
0.395,0.807548534,0
0.396,0.863413996,0
0.397,0.91449099,0
0.398,0.960141053,0
0.399,0.999406492,0
0.4,1.031329614,0
0.401,1.054952723,0
0.402,1.069637359,0
0.403,1.074106596,0
0.404,1.068041203,0
0.405,1.050483486,0
0.406,1.021433446,0
0.407,0.980891082,0
0.408,0.930133319,0
0.409,0.86979862,0
0.41,0.800844678,0
0.411,0.725506112,0
0.412,0.645059847,0
0.413,0.561740501,0
0.414,0.476505767,0
0.415,0.391590264,0
0.416,0.307632456,0
0.417,0.225909265,0
0.418,0.147697618,0
0.419,0.073955208,0
0.42,0.005320498,0
0.421,-0.057568051,0
0.422,-0.114071976,0
0.423,-0.164191276,0
0.424,-0.20728749,0
0.425,-0.243679848,0
0.426,-0.27336835,0
0.427,-0.296672229,0
0.428,-0.313591483,0
0.429,-0.324764576,0
0.43,-0.330191506,0
0.431,-0.330191506,0
0.432,-0.325083807,0
0.433,-0.31550687,0
0.434,-0.30209916,0
0.435,-0.284541443,0
0.436,-0.263472183,0
0.437,-0.239529842,0
0.438,-0.213033651,0
0.439,-0.184941305,0
0.44,-0.156210496,0
0.441,-0.127160455,0
0.442,-0.098748877,0
0.443,-0.071933456,0
0.444,-0.047352652,0
0.445,-0.026283392,0
0.446,-0.008087213,0
0.447,0.006278191,0
0.448,0.01649359,0
0.449,0.023835908,0
0.45,0.027347451,0
0.451,0.027985914,0
0.452,0.026389758,0
0.453,0.022878214,0
0.454,0.018089746,0
0.455,0.012982047,0
0.456,0.007555116,0
0.457,0.002766648,0
0.458,-0.001702589,0
0.459,-0.00457567,0
0.46,-0.005852595,0
0.461,-0.005852595,0
0.462,-0.003937207,0
0.463,-0.001064126,0
0.464,0.002447417,0
0.465,0.006597423,0
0.466,0.01106666,0
0.467,0.015216665,0
0.468,0.01904744,0
0.469,0.022558983,0
0.47,0.024793602,0
0.471,0.026708989,0
0.472,0.027666683,0
0.473,0.027985914,0
0.474,0.027985914,0
0.475,0.027985914,0
0.476,0.027985914,0
0.477,0.028624376,0
0.478,0.030220532,0
0.479,0.032455151,0
0.48,0.035647463,0
0.481,0.039478237,0
0.482,0.044266706,0
0.483,0.049693636,0
0.484,0.055120567,0
0.485,0.060866729,0
0.486,0.066293659,0
0.487,0.071082127,0
0.488,0.075551364,0
0.489,0.079062908,0
0.49,0.080978295,0
0.491,0.08225522,0
0.492,0.082574451,0
0.493,0.08225522,0
0.494,0.081297526,0
0.495,0.080339833,0
0.496,0.079062908,0
0.497,0.078105214,0
0.498,0.077147521,0
0.499,0.076828289,0
0.5,0.077147521,0
0.501,0.078105214,0
0.502,0.07970137,0
0.503,0.081616757,0
0.504,0.083851376,0
0.505,0.086085994,0
0.506,0.088320613,0
0.507,0.090236,0
0.508,0.091832156,0
0.509,0.092470619,0
0.51,0.092470619,0
0.511,0.091832156,0
0.512,0.090555231,0
0.513,0.089278307,0
0.514,0.088001382,0
0.515,0.087362919,0
0.516,0.086724457,0
0.517,0.087043688,0
0.518,0.088001382,0
0.519,0.089916769,0
0.52,0.092470619,0
0.521,0.095982162,0
0.522,0.100132168,0
0.523,0.104920636,0
0.524,0.109709104,0
0.525,0.114178341,0
0.526,0.118328347,0
0.527,0.12183989,0
0.528,0.12439374,0
0.529,0.126309127,0
0.53,0.12694759,0
0.531,0.12694759,0
0.532,0.125989896,0
0.533,0.124074509,0
0.534,0.12183989,0
0.535,0.119605272,0
0.536,0.117370653,0
0.537,0.115455266,0
0.538,0.114497572,0
0.539,0.114178341,0
0.54,0.115136035,0
0.541,0.116732191,0
0.542,0.119605272,0
0.543,0.122797584,0
0.544,0.126628358,0
0.545,0.130778364,0
0.546,0.134609139,0
0.547,0.138120682,0
0.548,0.140674532,0
0.549,0.14290915,0
0.55,0.144505306,0
0.551,0.145143769,0
0.552,0.145463,0
0.553,0.145463,0
0.554,0.145463,0
0.555,0.145782231,0
0.556,0.146101462,0
0.557,0.147378387,0
0.558,0.148974543,0
0.559,0.151528393,0
0.56,0.154401474,0
0.561,0.158232248,0
0.562,0.162701485,0
0.563,0.167489954,0
0.564,0.172278422,0
0.565,0.177386121,0
0.566,0.182493821,0
0.567,0.186643826,0
0.568,0.190474601,0
0.569,0.193028451,0
0.57,0.194943838,0
0.571,0.195901531,0
0.572,0.196539994,0
0.573,0.196859225,0
0.574,0.196859225,0
0.575,0.197178456,0
0.576,0.197816919,0
0.577,0.199093844,0
0.578,0.201328462,0
0.579,0.204520774,0
0.58,0.208990011,0
0.581,0.214416942,0
0.582,0.220801566,0
0.583,0.22718619,0
0.584,0.233890046,0
0.585,0.239955439,0
0.586,0.245701601,0
0.587,0.2508093,0
0.588,0.254959306,0
0.589,0.257832387,0
0.59,0.259747774,0
0.591,0.260705467,0
0.592,0.260705467,0
0.593,0.259747774,0
0.594,0.258151618,0
0.595,0.256236231,0
0.596,0.254001612,0
0.597,0.252086225,0
0.598,0.2508093,0
0.599,0.250490069,0
0.6,0.251128531,0
0.601,0.252724687,0
0.602,0.254959306,0
0.603,0.257513155,0
0.604,0.260386236,0
0.605,0.263259317,0
0.606,0.266132398,0
0.607,0.268367017,0
0.608,0.269643941,0
0.609,0.269963173,0
0.61,0.269643941,0
0.611,0.268047785,0
0.612,0.266132398,0
0.613,0.263578548,0
0.614,0.260386236,0
0.615,0.257513155,0
0.616,0.254001612,0
0.617,0.2508093,0
0.618,0.24825545,0
0.619,0.245701601,0
0.62,0.244105444,0
0.621,0.243147751,0
0.622,0.242509288,0
0.623,0.241870826,0
0.624,0.241551595,0
0.625,0.240913132,0
0.626,0.239955439,0
0.627,0.238678514,0
0.628,0.236443895,0
0.629,0.233570814,0
0.63,0.230378502,0
0.631,0.226228497,0
0.632,0.222078491,0
0.633,0.217290023,0
0.634,0.212182323,0
0.635,0.207393855,0
0.636,0.202605387,0
0.637,0.198455381,0
0.638,0.195263069,0
0.639,0.192709219,0
0.64,0.191113063,0
0.641,0.190474601,0
0.642,0.190474601,0
0.643,0.191113063,0
0.644,0.191751526,0
0.645,0.192389988,0
0.646,0.192709219,0
0.647,0.192389988,0
0.648,0.191113063,0
0.649,0.188878445,0
0.65,0.185686133,0
0.651,0.181855358,0
0.652,0.177386121,0
0.653,0.172916884,0
0.654,0.168128416,0
0.655,0.163339948,0
0.656,0.159189942,0
0.657,0.155359167,0
0.658,0.152166855,0
0.659,0.150251468,0
0.66,0.148974543,0
0.661,0.148336081,0
0.662,0.148336081,0
0.663,0.148336081,0
0.664,0.148336081,0
0.665,0.14801685,0
0.666,0.147059156,0
0.667,0.145463,0
0.668,0.143228381,0
0.669,0.140355301,0
0.67,0.136524526,0
0.671,0.13237452,0
0.672,0.127586052,0
0.673,0.122159121,0
0.674,0.117051422,0
0.675,0.111943723,0
0.676,0.107474486,0
0.677,0.103962942,0
0.678,0.101409093,0
0.679,0.100132168,0
0.68,0.099812937,0
0.681,0.10077063,0
0.682,0.102366786,0
0.683,0.104920636,0
0.684,0.107474486,0
0.685,0.109709104,0
0.686,0.111624491,0
0.687,0.112262954,0
0.688,0.111943723,0
0.689,0.110666798,0
0.69,0.108432179,0
0.691,0.105239867,0
0.692,0.101089861,0
0.693,0.095982162,0
0.694,0.090555231,0
0.695,0.085128301,0
0.696,0.07970137,0
0.697,0.074912902,0
0.698,0.070443665,0
0.699,0.067251353,0
0.7,0.065335966,0
0.701,0.064378272,0
0.702,0.064697503,0
0.703,0.065655197,0
0.704,0.067570584,0
0.705,0.069485971,0
0.706,0.07172059,0
0.707,0.073635977,0
0.708,0.074912902,0
0.709,0.075870596,0
0.71,0.075870596,0
0.711,0.075551364,0
0.712,0.074593671,0
0.713,0.073635977,0
0.714,0.072359052,0
0.715,0.071082127,0
0.716,0.070443665,0
0.717,0.070124434,0
0.718,0.070443665,0
0.719,0.071401359,0
0.72,0.072997515,0
0.721,0.075232133,0
0.722,0.077466752,0
0.723,0.080020601,0
0.724,0.082574451,0
0.725,0.08480907,0
0.726,0.086724457,0
0.727,0.088001382,0
0.728,0.088320613,0
0.729,0.088001382,0
0.73,0.086724457,0
0.731,0.084489838,0
0.732,0.081616757,0
0.733,0.078424445,0
0.734,0.075232133,0
0.735,0.072039821,0
0.736,0.069805203,0
0.737,0.067889815,0
0.738,0.067570584,0
0.739,0.068209047,0
0.74,0.069805203,0
0.741,0.072359052,0
0.742,0.075551364,0
0.743,0.079382139,0
0.744,0.083212914,0
0.745,0.086724457,0
0.746,0.089916769,0
0.747,0.092151387,0
0.748,0.093747544,0
0.749,0.094386006,0
0.75,0.093747544,0
0.751,0.092470619,0
0.752,0.090236,0
0.753,0.087682151,0
0.754,0.08480907,0
0.755,0.081616757,0
0.756,0.079062908,0
0.757,0.076509058,0
0.758,0.074593671,0
0.759,0.073635977,0
0.76,0.073316746,0
0.761,0.073955208,0
0.762,0.075551364,0
0.763,0.077466752,0
0.764,0.07970137,0
0.765,0.08225522,0
0.766,0.084489838,0
0.767,0.086405226,0
0.768,0.087362919,0
0.769,0.087682151,0
0.77,0.087362919,0
0.771,0.086405226,0
0.772,0.08480907,0
0.773,0.083212914,0
0.774,0.081297526,0
0.775,0.07970137,0
0.776,0.078424445,0
0.777,0.077785983,0
0.778,0.078105214,0
0.779,0.079062908,0
0.78,0.080659064,0
0.781,0.082574451,0
0.782,0.084489838,0
0.783,0.087043688,0
0.784,0.088959075,0
0.785,0.090555231,0
0.786,0.091193694,0
0.787,0.091193694,0
0.788,0.090236,0
0.789,0.088001382,0
0.79,0.085128301,0
0.791,0.081297526,0
0.792,0.076828289,0
0.793,0.072359052,0
0.794,0.067889815,0
0.795,0.063420578,0
0.796,0.059909035,0
0.797,0.057035954,0
0.798,0.055120567,0
0.799,0.054482104,0
0.8,0.054801336,0
0.801,0.055759029,0
0.802,0.057993648,0
0.803,0.060547497,0
0.804,0.06373981,0
0.805,0.066612891,0
0.806,0.06916674,0
0.807,0.070762896,0
0.808,0.07172059,0
0.809,0.071401359,0
0.81,0.070124434,0
0.811,0.067889815,0
0.812,0.065335966,0
0.813,0.062462885,0
0.814,0.059589804,0
0.815,0.056397492,0
0.816,0.053524411,0
0.817,0.051289792,0
0.818,0.049693636,0
0.819,0.049055174,0
0.82,0.049055174,0
0.821,0.050012867,0
0.822,0.051928255,0
0.823,0.053843642,0
0.824,0.056078261,0
0.825,0.058312879,0
0.826,0.059909035,0
0.827,0.06118596,0
0.828,0.061505191,0
0.829,0.060866729,0
0.83,0.059270573,0
0.831,0.056397492,0
0.832,0.052885948,0
0.833,0.048735943,0
0.834,0.044585937,0
0.835,0.040755162,0
0.836,0.036924388,0
0.837,0.033732076,0
0.838,0.031178226,0
0.839,0.029262839,0
0.84,0.028305145,0
0.841,0.027666683,0
0.842,0.027985914,0
0.843,0.028943607,0
0.844,0.029901301,0
0.845,0.030858995,0
0.846,0.031178226,0
0.847,0.031497457,0
0.848,0.030858995,0
0.849,0.029901301,0
0.85,0.028305145,0
0.851,0.026389758,0
0.852,0.024155139,0
0.853,0.021282058,0
0.854,0.018728209,0
0.855,0.015855128,0
0.856,0.013620509,0
0.857,0.012024353,0
0.858,0.011385891,0
0.859,0.011385891,0
0.86,0.011705122,0
0.861,0.012662816,0
0.862,0.013620509,0
0.863,0.014897434,0
0.864,0.015855128,0
0.865,0.01649359,0
0.866,0.01649359,0
0.867,0.015855128,0
0.868,0.014578203,0
0.869,0.012343584,0
0.87,0.009789735,0
0.871,0.006597423,0
0.872,0.003085879,0
0.873,-0.000425664,0
0.874,-0.004256439,0
0.875,-0.007767982,0
0.876,-0.011279525,0
0.877,-0.014152606,0
0.878,-0.016067993,0
0.879,-0.017664149,0
0.88,-0.018302612,0
0.881,-0.018302612,0
0.882,-0.018302612,0
0.883,-0.018302612,0
0.884,-0.018941074,0
0.885,-0.020217999,0
0.886,-0.022452618,0
0.887,-0.02564493,0
0.888,-0.029794936,0
0.889,-0.034902635,0
0.89,-0.040648797,0
0.891,-0.04671419,0
0.892,-0.053418045,0
0.893,-0.060121901,0
0.894,-0.066506525,0
0.895,-0.072571918,0
0.896,-0.077679617,0
0.897,-0.081510392,0
0.898,-0.084064242,0
0.899,-0.085021935,0
0.9,-0.085021935,0
0.901,-0.08374501,0
0.902,-0.081191161,0
0.903,-0.078637311,0
0.904,-0.076402693,0
0.905,-0.074487305,0
0.906,-0.07321038,0
0.907,-0.072571918,0
0.908,-0.072571918,0
0.909,-0.07321038,0
0.91,-0.074487305,0
0.911,-0.076721924,0
0.912,-0.079275773,0
0.913,-0.082148854,0
0.914,-0.085021935,0
0.915,-0.087575785,0
0.916,-0.090129635,0
0.917,-0.091725791,0
0.918,-0.092364253,0
0.919,-0.092364253,0
0.92,-0.090768097,0
0.921,-0.088533479,0
0.922,-0.085660398,0
0.923,-0.082148854,0
0.924,-0.078956542,0
0.925,-0.07576423,0
0.926,-0.073529612,0
0.927,-0.071614224,0
0.928,-0.070975762,0
0.929,-0.070975762,0
0.93,-0.071933456,0
0.931,-0.073529612,0
0.932,-0.07576423,0
0.933,-0.077998849,0
0.934,-0.080552698,0
0.935,-0.082468086,0
0.936,-0.084064242,0
0.937,-0.085021935,0
0.938,-0.085341166,0
0.939,-0.084702704,0
0.94,-0.083106548,0
0.941,-0.080871929,0
0.942,-0.077998849,0
0.943,-0.075444999,0
0.944,-0.072571918,0
0.945,-0.070337299,0
0.946,-0.068421912,0
0.947,-0.06778345,0
0.948,-0.06778345,0
0.949,-0.068741143,0
0.95,-0.070975762,0
0.951,-0.073529612,0
0.952,-0.077041155,0
0.953,-0.080552698,0
0.954,-0.084383473,0
0.955,-0.087895016,0
0.956,-0.091087328,0
0.957,-0.093321947,0
0.958,-0.094598872,0
0.959,-0.094918103,0
0.96,-0.093960409,0
0.961,-0.092364253,0
0.962,-0.089810403,0
0.963,-0.087256554,0
0.964,-0.084064242,0
0.965,-0.080871929,0
0.966,-0.077679617,0
0.967,-0.074806536,0
0.968,-0.071933456,0
0.969,-0.069698837,0
0.97,-0.06778345,0
0.971,-0.066187294,0
0.972,-0.064910369,0
0.973,-0.063633444,0
0.974,-0.062356519,0
0.975,-0.060760363,0
0.976,-0.058844976,0
0.977,-0.056291126,0
0.978,-0.053418045,0
0.979,-0.050225733,0
0.98,-0.04671419,0
0.981,-0.042883415,0
0.982,-0.039052641,0
0.983,-0.035221866,0
0.984,-0.031710323,0
0.985,-0.029156473,0
0.986,-0.027241086,0
0.987,-0.026283392,0
0.988,-0.026921855,0
0.989,-0.028198779,0
0.99,-0.030433398,0
0.991,-0.033306479,0
0.992,-0.035860329,0
0.993,-0.038414178,0
0.994,-0.040329566,0
0.995,-0.041287259,0
0.996,-0.041287259,0
0.997,-0.040010334,0
0.998,-0.037775716,0
0.999,-0.033944941,0
1,-0.029475704,0
1.001,-0.023729543,0
1.002,-0.017664149,0
1.003,-0.011598756,0
1.004,-0.005852595,0
1.005,-0.000425664,0
1.006,0.004043573,0
1.007,0.007235885,0
1.008,0.009789735,0
1.009,0.010747428,0
1.01,0.010747428,0
1.011,0.009789735,0
1.012,0.008193579,0
1.013,0.006278191,0
1.014,0.004362804,0
1.015,0.002766648,0
1.016,0.001170492,0
1.017,0.000212798,0
1.018,-0.000106433,0
1.019,0.000851261,0
1.02,0.002447417,0
1.021,0.004682035,0
1.022,0.007555116,0
1.023,0.010747428,0
1.024,0.013620509,0
1.025,0.016174359,0
1.026,0.017451284,0
1.027,0.017770515,0
1.028,0.016174359,0
1.029,0.013301278,0
1.03,0.009151272,0
1.031,0.004362804,0
1.032,-0.00202182,0
1.033,-0.008725676,0
1.034,-0.015748762,0
1.035,-0.022771849,0
1.036,-0.029156473,0
1.037,-0.035221866,0
1.038,-0.040648797,0
1.039,-0.045118034,0
1.04,-0.048948808,0
1.041,-0.05214112,0
1.042,-0.054375739,0
1.043,-0.056610357,0
1.044,-0.058525745,0
1.045,-0.060441132,0
1.046,-0.062994982,0
1.047,-0.065868063,0
1.048,-0.069379606,0
1.049,-0.073529612,0
1.05,-0.077998849,0
1.051,-0.082468086,0
1.052,-0.087256554,0
1.053,-0.092045022,0
1.054,-0.096195028,0
1.055,-0.09938734,0
1.056,-0.101621958,0
1.057,-0.102579652,0
1.058,-0.102260421,0
1.059,-0.100345033,0
1.06,-0.097791184,0
1.061,-0.093960409,0
1.062,-0.090129635,0
1.063,-0.085979629,0
1.064,-0.081829623,0
1.065,-0.07831808,0
1.066,-0.075444999,0
1.067,-0.074168074,0
1.068,-0.074168074,0
1.069,-0.076083461,0
1.07,-0.079595005,0
1.071,-0.084702704,0
1.072,-0.091406559,0
1.073,-0.09938734,0
1.074,-0.107687351,0
1.075,-0.115987363,0
1.076,-0.123648912,0
1.077,-0.130352767,0
1.078,-0.135460467,0
1.079,-0.138652779,0
1.08,-0.139929704,0
1.081,-0.13897201,0
1.082,-0.135460467,0
1.083,-0.129395074,0
1.084,-0.121095062,0
1.085,-0.110241201,0
1.086,-0.097152721,0
1.087,-0.081191161,0
1.088,-0.062994982,0
1.089,-0.041925722,0
1.09,-0.018621843,0
1.091,0.006916654,0
1.092,0.035647463,0
1.093,0.067570584,0
1.094,0.103005249,0
1.095,0.142589919,0
1.096,0.186005364,0
1.097,0.233251583,0
1.098,0.284647808,0
1.099,0.339874808,0
1.1,0.39829412,0
1.101,0.45894805,0
1.102,0.520559674,0
1.103,0.581213604,0
1.104,0.638675223,0
1.105,0.691667604,0
1.106,0.738913823,0
1.107,0.778498494,0
1.108,0.810102384,0
1.109,0.8327678,0
1.11,0.845537048,0
1.111,0.848410129,0
1.112,0.84074858,0
1.113,0.82223317,0
1.114,0.793183129,0
1.115,0.754556153,0
1.116,0.70635224,0
1.117,0.649848315,0
1.118,0.586640535,0
1.119,0.517686593,84.74576271
1.12,0.445221108,84.74576271
1.121,0.369882542,84.74576271
1.122,0.293586282,84.74576271
1.123,0.217290023,84.74576271
1.124,0.14290915,84.74576271
1.125,0.070443665,84.74576271
1.126,0.001170492,84.74576271
1.127,-0.0652296,84.74576271
1.128,-0.12843738,84.74576271
1.129,-0.187814386,84.74576271
1.13,-0.243041385,84.74576271
1.131,-0.294118379,84.74576271
1.132,-0.340406905,84.74576271
1.133,-0.3812685,84.74576271
1.134,-0.417022396,84.74576271
1.135,-0.446391667,84.74576271
1.136,-0.469695546,84.74576271
1.137,-0.4866148,84.74576271
1.138,-0.497468661,84.74576271
1.139,-0.501937898,84.74576271
1.14,-0.500660973,84.74576271
1.141,-0.494276349,84.74576271
1.142,-0.483103257,84.74576271
1.143,-0.467460927,84.74576271
1.144,-0.448626286,84.74576271
1.145,-0.427237795,84.74576271
1.146,-0.403614685,84.74576271
1.147,-0.37871465,84.74576271
1.148,-0.353814616,84.74576271
1.149,-0.32859535,84.74576271
1.15,-0.304333778,84.74576271
1.151,-0.2810299,84.74576271
1.152,-0.259002946,84.74576271
1.153,-0.238572148,84.74576271
1.154,-0.220056738,84.74576271
1.155,-0.203137484,84.74576271
1.156,-0.188133617,84.74576271
1.157,-0.174725906,84.74576271
1.158,-0.162914351,84.74576271
1.159,-0.152698952,84.74576271
1.16,-0.143441247,84.74576271
1.161,-0.135141236,84.74576271
1.162,-0.128118149,84.74576271
1.163,-0.122371987,84.74576271
1.164,-0.11790275,84.74576271
1.165,-0.114391207,84.74576271
1.166,-0.112475819,84.74576271
1.167,-0.111198895,84.74576271
1.168,-0.110879663,84.74576271
1.169,-0.111518126,84.74576271
1.17,-0.112795051,84.74576271
1.171,-0.114710438,84.74576271
1.172,-0.116625825,84.74576271
1.173,-0.118860444,84.74576271
1.174,-0.120775831,84.74576271
1.175,-0.122052756,84.74576271
1.176,-0.122371987,84.74576271
1.177,-0.122052756,84.74576271
1.178,-0.1204566,84.74576271
1.179,-0.11790275,84.74576271
1.18,-0.114391207,84.74576271
1.181,-0.110241201,84.74576271
1.182,-0.105452733,84.74576271
1.183,-0.100664265,84.74576271
1.184,-0.096195028,84.74576271
1.185,-0.091725791,84.74576271
1.186,-0.088214247,84.74576271
1.187,-0.085341166,84.74576271
1.188,-0.083425779,84.74576271
1.189,-0.082468086,84.74576271
1.19,-0.082468086,84.74576271
1.191,-0.082787317,84.74576271
1.192,-0.083425779,84.74576271
1.193,-0.084064242,84.74576271
1.194,-0.084702704,84.74576271
1.195,-0.085341166,84.74576271
1.196,-0.085021935,84.74576271
1.197,-0.084064242,84.74576271
1.198,-0.082148854,84.74576271
1.199,-0.079275773,84.74576271
1.2,-0.07576423,84.74576271
1.201,-0.071614224,84.74576271
1.202,-0.067144987,84.74576271
1.203,-0.062994982,84.74576271
1.204,-0.059164207,84.74576271
1.205,-0.055652664,84.74576271
1.206,-0.053098814,84.74576271
1.207,-0.051183427,84.74576271
1.208,-0.050544964,84.74576271
1.209,-0.050544964,84.74576271
1.21,-0.051502658,84.74576271
1.211,-0.053418045,84.74576271
1.212,-0.055333433,84.74576271
1.213,-0.057887282,84.74576271
1.214,-0.059802669,84.74576271
1.215,-0.061398826,84.74576271
1.216,-0.062356519,84.74576271
1.217,-0.062356519,84.74576271
1.218,-0.061398826,84.74576271
1.219,-0.059483438,84.74576271
1.22,-0.056610357,84.74576271
1.221,-0.053418045,84.74576271
1.222,-0.049906502,84.74576271
1.223,-0.046075727,84.74576271
1.224,-0.042564184,84.74576271
1.225,-0.039371872,84.74576271
1.226,-0.037456485,84.74576271
1.227,-0.03617956,84.74576271
1.228,-0.035860329,84.74576271
1.229,-0.036818022,84.74576271
1.23,-0.038414178,84.74576271
1.231,-0.040329566,84.74576271
1.232,-0.042883415,84.74576271
1.233,-0.045756496,84.74576271
1.234,-0.047991115,84.74576271
1.235,-0.050225733,84.74576271
1.236,-0.051502658,84.74576271
1.237,-0.05214112,84.74576271
1.238,-0.051821889,84.74576271
1.239,-0.050544964,84.74576271
1.24,-0.048629577,84.74576271
1.241,-0.046075727,84.74576271
1.242,-0.042883415,84.74576271
1.243,-0.039371872,84.74576271
1.244,-0.035860329,84.74576271
1.245,-0.032668016,84.74576271
1.246,-0.029794936,84.74576271
1.247,-0.027879548,84.74576271
1.248,-0.026602623,84.74576271
1.249,-0.025964161,84.74576271
1.25,-0.026283392,84.74576271
1.251,-0.026921855,84.74576271
1.252,-0.027879548,84.74576271
1.253,-0.028837242,84.74576271
1.254,-0.029475704,84.74576271
1.255,-0.029475704,84.74576271
1.256,-0.028518011,84.74576271
1.257,-0.027241086,84.74576271
1.258,-0.025006467,84.74576271
1.259,-0.021814155,84.74576271
1.26,-0.018302612,84.74576271
1.261,-0.013833375,84.74576271
1.262,-0.009364138,84.74576271
1.263,-0.00457567,84.74576271
1.264,-0.000425664,84.74576271
1.265,0.003724342,84.74576271
1.266,0.006597423,84.74576271
1.267,0.009151272,84.74576271
1.268,0.010747428,84.74576271
1.269,0.011385891,84.74576271
1.27,0.011705122,84.74576271
1.271,0.011705122,84.74576271
1.272,0.011385891,84.74576271
1.273,0.011385891,84.74576271
1.274,0.012024353,84.74576271
1.275,0.012982047,84.74576271
1.276,0.014897434,84.74576271
1.277,0.017451284,84.74576271
1.278,0.021282058,84.74576271
1.279,0.025751295,84.74576271
1.28,0.031178226,84.74576271
1.281,0.036924388,84.74576271
1.282,0.04267055,84.74576271
1.283,0.048735943,84.74576271
1.284,0.054162873,84.74576271
1.285,0.059270573,84.74576271
1.286,0.06373981,84.74576271
1.287,0.067251353,84.74576271
1.288,0.069805203,84.74576271
1.289,0.07172059,84.74576271
1.29,0.072997515,84.74576271
1.291,0.073635977,84.74576271
1.292,0.073955208,84.74576271
1.293,0.073955208,84.74576271
1.294,0.073955208,84.74576271
1.295,0.074593671,84.74576271
1.296,0.075551364,84.74576271
1.297,0.077466752,84.74576271
1.298,0.080020601,84.74576271
1.299,0.083851376,84.74576271
1.3,0.088001382,84.74576271
1.301,0.092470619,84.74576271
1.302,0.097259087,84.74576271
1.303,0.101728324,84.74576271
1.304,0.105559098,84.74576271
1.305,0.109070642,84.74576271
1.306,0.111624491,84.74576271
1.307,0.113539879,84.74576271
1.308,0.114178341,84.74576271
1.309,0.114178341,84.74576271
1.31,0.113220647,84.74576271
1.311,0.111624491,84.74576271
1.312,0.109709104,84.74576271
1.313,0.107793717,84.74576271
1.314,0.10587833,84.74576271
1.315,0.104282174,84.74576271
1.316,0.10332448,84.74576271
1.317,0.103005249,84.74576271
1.318,0.103005249,84.74576271
1.319,0.103962942,84.74576271
1.32,0.104920636,84.74576271
1.321,0.106516792,84.74576271
1.322,0.107793717,84.74576271
1.323,0.109070642,84.74576271
1.324,0.110028335,84.74576271
1.325,0.109709104,84.74576271
1.326,0.108432179,84.74576271
1.327,0.106197561,84.74576271
1.328,0.103005249,84.74576271
1.329,0.098855243,84.74576271
1.33,0.093747544,84.74576271
1.331,0.088639844,84.74576271
1.332,0.083212914,84.74576271
1.333,0.077785983,84.74576271
1.334,0.072997515,84.74576271
1.335,0.068847509,84.74576271
1.336,0.065655197,84.74576271
1.337,0.063420578,84.74576271
1.338,0.062143654,84.74576271
1.339,0.061824422,84.74576271
1.34,0.062143654,84.74576271
1.341,0.063101347,84.74576271
1.342,0.064059041,84.74576271
1.343,0.065016734,84.74576271
1.344,0.065655197,84.74576271
1.345,0.065974428,84.74576271
1.346,0.065335966,84.74576271
1.347,0.06373981,84.74576271
1.348,0.061824422,84.74576271
1.349,0.058951341,84.74576271
1.35,0.055120567,84.74576271
1.351,0.050970561,84.74576271
1.352,0.046501324,84.74576271
1.353,0.042032087,84.74576271
1.354,0.03756285,84.74576271
1.355,0.033732076,84.74576271
1.356,0.030220532,84.74576271
1.357,0.027666683,84.74576271
1.358,0.026070527,84.74576271
1.359,0.025432064,84.74576271
1.36,0.025751295,84.74576271
1.361,0.026708989,84.74576271
1.362,0.027985914,84.74576271
1.363,0.028943607,84.74576271
1.364,0.029901301,84.74576271
1.365,0.030220532,84.74576271
1.366,0.02958207,84.74576271
1.367,0.028305145,84.74576271
1.368,0.026070527,84.74576271
1.369,0.023197446,84.74576271
1.37,0.019685902,84.74576271
1.371,0.015535897,84.74576271
1.372,0.011385891,84.74576271
1.373,0.007235885,84.74576271
1.374,0.004043573,84.74576271
1.375,0.00053203,84.74576271
1.376,-0.00202182,84.74576271
1.377,-0.003937207,84.74576271
1.378,-0.005214132,84.74576271
1.379,-0.005533363,84.74576271
1.38,-0.005214132,84.74576271
1.381,-0.00457567,84.74576271
1.382,-0.003617976,84.74576271
1.383,-0.002660283,84.74576271
1.384,-0.002341051,84.74576271
1.385,-0.002660283,84.74576271
1.386,-0.003617976,84.74576271
1.387,-0.005533363,84.74576271
1.388,-0.008406444,84.74576271
1.389,-0.012237219,84.74576271
1.39,-0.016387225,84.74576271
1.391,-0.021175693,84.74576271
1.392,-0.025964161,84.74576271
1.393,-0.030433398,84.74576271
1.394,-0.034583404,84.74576271
1.395,-0.038094947,84.74576271
1.396,-0.041287259,84.74576271
1.397,-0.043202646,84.74576271
1.398,-0.044479571,84.74576271
1.399,-0.044479571,84.74576271
1.4,-0.043841109,84.74576271
1.401,-0.042564184,84.74576271
1.402,-0.041287259,84.74576271
1.403,-0.040010334,84.74576271
1.404,-0.039052641,84.74576271
1.405,-0.038414178,84.74576271
1.406,-0.038414178,84.74576271
1.407,-0.039052641,84.74576271
1.408,-0.040648797,84.74576271
1.409,-0.042883415,84.74576271
1.41,-0.045756496,84.74576271
1.411,-0.049268039,84.74576271
1.412,-0.052779583,84.74576271
1.413,-0.056291126,84.74576271
1.414,-0.059164207,84.74576271
1.415,-0.061398826,84.74576271
1.416,-0.06267575,84.74576271
1.417,-0.06267575,84.74576271
1.418,-0.061718057,84.74576271
1.419,-0.059802669,84.74576271
1.42,-0.05724882,84.74576271
1.421,-0.053737276,84.74576271
1.422,-0.049906502,84.74576271
1.423,-0.046075727,84.74576271
1.424,-0.042244953,84.74576271
1.425,-0.038414178,84.74576271
1.426,-0.035541097,84.74576271
1.427,-0.033306479,84.74576271
1.428,-0.031391092,84.74576271
1.429,-0.030433398,84.74576271
1.43,-0.029475704,84.74576271
1.431,-0.029156473,84.74576271
1.432,-0.029156473,84.74576271
1.433,-0.028837242,84.74576271
1.434,-0.028518011,84.74576271
1.435,-0.027879548,84.74576271
1.436,-0.026283392,84.74576271
1.437,-0.024048774,84.74576271
1.438,-0.020856462,84.74576271
1.439,-0.017025687,84.74576271
1.44,-0.012875681,84.74576271
1.441,-0.008725676,84.74576271
1.442,-0.00457567,84.74576271
1.443,-0.000744895,84.74576271
1.444,0.002447417,84.74576271
1.445,0.005001267,84.74576271
1.446,0.006278191,84.74576271
1.447,0.006597423,84.74576271
1.448,0.006278191,84.74576271
1.449,0.004682035,84.74576271
1.45,0.002128186,84.74576271
1.451,-0.000744895,84.74576271
1.452,-0.003617976,84.74576271
1.453,-0.006491057,84.74576271
1.454,-0.009044907,84.74576271
1.455,-0.010641063,84.74576271
1.456,-0.010960294,84.74576271
1.457,-0.010321832,84.74576271
1.458,-0.008725676,84.74576271
1.459,-0.005852595,84.74576271
1.46,-0.00202182,84.74576271
1.461,0.002447417,84.74576271
1.462,0.006597423,84.74576271
1.463,0.011385891,84.74576271
1.464,0.015535897,84.74576271
1.465,0.01904744,84.74576271
1.466,0.02160129,84.74576271
1.467,0.023197446,84.74576271
1.468,0.023516677,84.74576271
1.469,0.022878214,84.74576271
1.47,0.021282058,84.74576271
1.471,0.01904744,84.74576271
1.472,0.015855128,84.74576271
1.473,0.012662816,84.74576271
1.474,0.009470504,84.74576271
1.475,0.006597423,84.74576271
1.476,0.004362804,84.74576271
1.477,0.002447417,84.74576271
1.478,0.001489723,84.74576271
1.479,0.001170492,84.74576271
1.48,0.001489723,84.74576271
1.481,0.002766648,84.74576271
1.482,0.004362804,84.74576271
1.483,0.00595896,84.74576271
1.484,0.006916654,84.74576271
1.485,0.007874347,84.74576271
1.486,0.007874347,84.74576271
1.487,0.007555116,84.74576271
1.488,0.006278191,84.74576271
1.489,0.005001267,84.74576271
1.49,0.002766648,84.74576271
1.491,0.00053203,84.74576271
1.492,-0.001702589,84.74576271
1.493,-0.003937207,84.74576271
1.494,-0.005533363,84.74576271
1.495,-0.006810288,84.74576271
1.496,-0.007129519,84.74576271
1.497,-0.006491057,84.74576271
1.498,-0.005214132,84.74576271
1.499,-0.002979514,84.74576271
1.5,-0.000106433,84.74576271
1.501,0.003085879,84.74576271
1.502,0.006278191,84.74576271
1.503,0.009789735,84.74576271
1.504,0.012343584,84.74576271
1.505,0.014578203,84.74576271
1.506,0.015535897,84.74576271
1.507,0.015535897,84.74576271
1.508,0.014578203,84.74576271
1.509,0.012343584,84.74576271
1.51,0.009470504,84.74576271
1.511,0.006278191,84.74576271
1.512,0.002766648,84.74576271
1.513,-0.001064126,84.74576271
1.514,-0.004894901,84.74576271
1.515,-0.007767982,84.74576271
1.516,-0.010321832,84.74576271
1.517,-0.011598756,84.74576271
1.518,-0.011917988,84.74576271
1.519,-0.011279525,84.74576271
1.52,-0.010321832,84.74576271
1.521,-0.008725676,84.74576271
1.522,-0.006810288,84.74576271
1.523,-0.004894901,84.74576271
1.524,-0.002979514,84.74576271
1.525,-0.001702589,84.74576271
1.526,-0.001064126,84.74576271
1.527,-0.001064126,84.74576271
1.528,-0.001702589,84.74576271
1.529,-0.002979514,84.74576271
1.53,-0.00457567,84.74576271
1.531,-0.006491057,84.74576271
1.532,-0.008725676,84.74576271
1.533,-0.010960294,84.74576271
1.534,-0.01255645,84.74576271
1.535,-0.013514144,84.74576271
1.536,-0.013514144,84.74576271
1.537,-0.01255645,84.74576271
1.538,-0.010960294,84.74576271
1.539,-0.008406444,84.74576271
1.54,-0.005214132,84.74576271
1.541,-0.001702589,84.74576271
1.542,0.001808954,84.74576271
1.543,0.005320498,84.74576271
1.544,0.008193579,84.74576271
1.545,0.010747428,84.74576271
1.546,0.012343584,84.74576271
1.547,0.012982047,84.74576271
1.548,0.012662816,84.74576271
1.549,0.011385891,84.74576271
1.55,0.009470504,84.74576271
1.551,0.006916654,84.74576271
1.552,0.004043573,84.74576271
1.553,0.000851261,84.74576271
1.554,-0.001702589,84.74576271
1.555,-0.004256439,84.74576271
1.556,-0.005533363,84.74576271
1.557,-0.006491057,84.74576271
1.558,-0.006171826,84.74576271
1.559,-0.005214132,84.74576271
1.56,-0.003937207,84.74576271
1.561,-0.00202182,84.74576271
1.562,0.000212798,84.74576271
1.563,0.001808954,84.74576271
1.564,0.003405111,84.74576271
1.565,0.004362804,84.74576271
1.566,0.004362804,84.74576271
1.567,0.003405111,84.74576271
1.568,0.001808954,84.74576271
1.569,-0.000744895,84.74576271
1.57,-0.003617976,84.74576271
1.571,-0.006810288,84.74576271
1.572,-0.0100026,84.74576271
1.573,-0.012875681,84.74576271
1.574,-0.015748762,84.74576271
1.575,-0.017983381,84.74576271
1.576,-0.019260306,84.74576271
1.577,-0.020217999,84.74576271
1.578,-0.019898768,84.74576271
1.579,-0.018941074,84.74576271
1.58,-0.016706456,84.74576271
1.581,-0.014152606,84.74576271
1.582,-0.010960294,84.74576271
1.583,-0.008087213,84.74576271
1.584,-0.005214132,84.74576271
1.585,-0.002979514,84.74576271
1.586,-0.001383358,84.74576271
1.587,-0.000744895,84.74576271
1.588,-0.001064126,84.74576271
1.589,-0.00202182,84.74576271
1.59,-0.003937207,84.74576271
1.591,-0.005852595,84.74576271
1.592,-0.008087213,84.74576271
1.593,-0.0100026,84.74576271
1.594,-0.011598756,84.74576271
1.595,-0.01255645,84.74576271
1.596,-0.01255645,84.74576271
1.597,-0.011917988,84.74576271
1.598,-0.010321832,84.74576271
1.599,-0.008087213,84.74576271
1.6,-0.005214132,84.74576271
1.601,-0.00202182,84.74576271
1.602,0.000851261,84.74576271
1.603,0.003085879,84.74576271
1.604,0.004682035,84.74576271
1.605,0.005639729,84.74576271
1.606,0.005320498,84.74576271
1.607,0.004362804,84.74576271
1.608,0.002447417,84.74576271
1.609,-0.000744895,84.74576271
1.61,-0.00457567,84.74576271
1.611,-0.009044907,84.74576271
1.612,-0.013833375,84.74576271
1.613,-0.018302612,84.74576271
1.614,-0.022771849,84.74576271
1.615,-0.026283392,84.74576271
1.616,-0.028837242,84.74576271
1.617,-0.030114167,84.74576271
1.618,-0.029794936,84.74576271
1.619,-0.028518011,84.74576271
1.62,-0.025964161,84.74576271
1.621,-0.022771849,84.74576271
1.622,-0.018941074,84.74576271
1.623,-0.014791069,84.74576271
1.624,-0.010960294,84.74576271
1.625,-0.007448751,84.74576271
1.626,-0.00457567,84.74576271
1.627,-0.002341051,84.74576271
1.628,-0.000425664,84.74576271
1.629,0.00053203,84.74576271
1.63,0.001489723,84.74576271
1.631,0.001489723,84.74576271
1.632,0.001489723,84.74576271
1.633,0.001170492,84.74576271
1.634,0.000851261,84.74576271
1.635,0.000851261,84.74576271
1.636,0.001170492,84.74576271
1.637,0.002766648,84.74576271
1.638,0.004682035,84.74576271
1.639,0.007235885,84.74576271
1.64,0.010747428,84.74576271
1.641,0.014578203,84.74576271
1.642,0.018728209,84.74576271
1.643,0.022558983,84.74576271
1.644,0.025751295,84.74576271
1.645,0.028624376,84.74576271
1.646,0.030539764,84.74576271
1.647,0.031816688,84.74576271
1.648,0.032455151,84.74576271
1.649,0.032774382,84.74576271
1.65,0.032455151,84.74576271
1.651,0.03213592,84.74576271
1.652,0.031816688,84.74576271
1.653,0.031816688,84.74576271
1.654,0.032455151,84.74576271
1.655,0.034051307,84.74576271
1.656,0.036285925,84.74576271
1.657,0.039478237,84.74576271
1.658,0.043947474,84.74576271
1.659,0.048735943,84.74576271
1.66,0.054482104,84.74576271
1.661,0.059909035,84.74576271
1.662,0.065335966,84.74576271
1.663,0.070124434,84.74576271
1.664,0.073955208,84.74576271
1.665,0.077147521,84.74576271
1.666,0.079062908,84.74576271
1.667,0.080020601,84.74576271
1.668,0.080020601,84.74576271
1.669,0.079062908,84.74576271
1.67,0.077785983,84.74576271
1.671,0.075870596,84.74576271
1.672,0.073635977,84.74576271
1.673,0.072039821,84.74576271
1.674,0.070762896,84.74576271
1.675,0.070762896,84.74576271
1.676,0.07172059,84.74576271
1.677,0.073955208,84.74576271
1.678,0.077147521,84.74576271
1.679,0.081297526,84.74576271
1.68,0.086085994,84.74576271
1.681,0.091512925,84.74576271
1.682,0.096939856,84.74576271
1.683,0.101728324,84.74576271
1.684,0.106197561,84.74576271
1.685,0.109389873,84.74576271
1.686,0.11130526,84.74576271
1.687,0.112262954,84.74576271
1.688,0.111624491,84.74576271
1.689,0.109389873,84.74576271
1.69,0.10587833,84.74576271
1.691,0.101089861,84.74576271
1.692,0.0953437,84.74576271
1.693,0.088959075,84.74576271
1.694,0.082574451,84.74576271
1.695,0.075870596,84.74576271
1.696,0.069805203,84.74576271
1.697,0.06373981,84.74576271
1.698,0.058312879,84.74576271
1.699,0.052885948,84.74576271
1.7,0.04809748,84.74576271
1.701,0.043947474,84.74576271
1.702,0.039797469,84.74576271
1.703,0.035647463,84.74576271
1.704,0.031497457,84.74576271
1.705,0.026708989,84.74576271
1.706,0.02160129,84.74576271
1.707,0.015535897,84.74576271
1.708,0.009151272,84.74576271
1.709,0.002766648,84.74576271
1.71,-0.003937207,84.74576271
1.711,-0.010641063,84.74576271
1.712,-0.016706456,84.74576271
1.713,-0.021814155,84.74576271
1.714,-0.026602623,84.74576271
1.715,-0.029794936,84.74576271
1.716,-0.032029554,84.74576271
1.717,-0.032987248,84.74576271
1.718,-0.032668016,84.74576271
1.719,-0.03107186,84.74576271
1.72,-0.028518011,84.74576271
1.721,-0.02564493,84.74576271
1.722,-0.022452618,84.74576271
1.723,-0.019260306,84.74576271
1.724,-0.016706456,84.74576271
1.725,-0.014471837,84.74576271
1.726,-0.013514144,84.74576271
1.727,-0.013194913,84.74576271
1.728,-0.013833375,84.74576271
1.729,-0.0151103,84.74576271
1.73,-0.017344918,84.74576271
1.731,-0.020217999,84.74576271
1.732,-0.024048774,84.74576271
1.733,-0.027879548,84.74576271
1.734,-0.032029554,84.74576271
1.735,-0.03617956,84.74576271
1.736,-0.040329566,84.74576271
1.737,-0.043521878,84.74576271
1.738,-0.046394959,84.74576271
1.739,-0.048310346,84.74576271
1.74,-0.049587271,84.74576271
1.741,-0.050225733,84.74576271
1.742,-0.049906502,84.74576271
1.743,-0.048629577,84.74576271
1.744,-0.04671419,84.74576271
1.745,-0.043841109,84.74576271
1.746,-0.039691103,84.74576271
1.747,-0.033944941,84.74576271
1.748,-0.026602623,84.74576271
1.749,-0.017664149,84.74576271
1.75,-0.006171826,84.74576271
1.751,0.007874347,84.74576271
1.752,0.025112833,84.74576271
1.753,0.046182093,84.74576271
1.754,0.071082127,84.74576271
1.755,0.099812937,84.74576271
1.756,0.133012983,84.74576271
1.757,0.170363034,84.74576271
1.758,0.212501554,84.74576271
1.759,0.259109311,84.74576271
1.76,0.309547843,84.74576271
1.761,0.363497918,84.74576271
1.762,0.420321074,84.74576271
1.763,0.479378848,84.74576271
1.764,0.539394316,84.74576271
1.765,0.599729015,84.74576271
1.766,0.658786789,84.74576271
1.767,0.714652251,84.74576271
1.768,0.766367708,84.74576271
1.769,0.812656233,84.74576271
1.77,0.851921672,84.74576271
1.771,0.883844794,84.74576271
1.772,0.907787135,84.74576271
1.773,0.923110233,84.74576271
1.774,0.929494857,84.74576271
1.775,0.926302545,84.74576271
1.776,0.913214065,84.74576271
1.777,0.890548649,84.74576271
1.778,0.858306297,84.74576271
1.779,0.816487008,84.74576271
1.78,0.765729245,84.74576271
1.781,0.706990702,84.74576271
1.782,0.641229072,84.74576271
1.783,0.570040512,84.74576271
1.784,0.494382715,90.49773756
1.785,0.416171068,90.49773756
1.786,0.336682496,90.49773756
1.787,0.257513155,90.49773756
1.788,0.179939971,90.49773756
1.789,0.104601405,90.49773756
1.79,0.032455151,90.49773756
1.791,-0.035221866,90.49773756
1.792,-0.098429646,90.49773756
1.793,-0.156529727,90.49773756
1.794,-0.209202877,90.49773756
1.795,-0.255810634,90.49773756
1.796,-0.296033766,90.49773756
1.797,-0.329233813,90.49773756
1.798,-0.356049234,90.49773756
1.799,-0.376480032,90.49773756
1.8,-0.390526205,90.49773756
1.801,-0.398826217,90.49773756
1.802,-0.401699298,90.49773756
1.803,-0.39978391,90.49773756
1.804,-0.393718517,90.49773756
1.805,-0.38382235,90.49773756
1.806,-0.371372333,90.49773756
1.807,-0.355730003,90.49773756
1.808,-0.337853055,90.49773756
1.809,-0.31806072,90.49773756
1.81,-0.296672229,90.49773756
1.811,-0.274006813,90.49773756
1.812,-0.250064472,90.49773756
1.813,-0.2258029,90.49773756
1.814,-0.201222096,90.49773756
1.815,-0.176960524,90.49773756
1.816,-0.153337415,90.49773756
1.817,-0.13099123,90.49773756
1.818,-0.109602739,90.49773756
1.819,-0.090448866,90.49773756
1.82,-0.07321038,90.49773756
1.821,-0.058206513,90.49773756
1.822,-0.046075727,90.49773756
1.823,-0.036498791,90.49773756
1.824,-0.029475704,90.49773756
1.825,-0.025006467,90.49773756
1.826,-0.022771849,90.49773756
1.827,-0.022771849,90.49773756
1.828,-0.024048774,90.49773756
1.829,-0.026921855,90.49773756
1.83,-0.030752629,90.49773756
1.831,-0.034583404,90.49773756
1.832,-0.038414178,90.49773756
1.833,-0.041925722,90.49773756
1.834,-0.044798803,90.49773756
1.835,-0.04671419,90.49773756
1.836,-0.047352652,90.49773756
1.837,-0.04671419,90.49773756
1.838,-0.044479571,90.49773756
1.839,-0.040968028,90.49773756
1.84,-0.036498791,90.49773756
1.841,-0.031710323,90.49773756
1.842,-0.026602623,90.49773756
1.843,-0.021494924,90.49773756
1.844,-0.017025687,90.49773756
1.845,-0.012875681,90.49773756
1.846,-0.009683369,90.49773756
1.847,-0.007129519,90.49773756
1.848,-0.005852595,90.49773756
1.849,-0.005214132,90.49773756
1.85,-0.005214132,90.49773756
1.851,-0.005533363,90.49773756
1.852,-0.005852595,90.49773756
1.853,-0.005852595,90.49773756
1.854,-0.005533363,90.49773756
1.855,-0.004256439,90.49773756
1.856,-0.002341051,90.49773756
1.857,0.000212798,90.49773756
1.858,0.003405111,90.49773756
1.859,0.006597423,90.49773756
1.86,0.010428197,90.49773756
1.861,0.014578203,90.49773756
1.862,0.018408977,90.49773756
1.863,0.021920521,90.49773756
1.864,0.024474371,90.49773756
1.865,0.026389758,90.49773756
1.866,0.027347451,90.49773756
1.867,0.027347451,90.49773756
1.868,0.026070527,90.49773756
1.869,0.024155139,90.49773756
1.87,0.021282058,90.49773756
1.871,0.018408977,90.49773756
1.872,0.015216665,90.49773756
1.873,0.012662816,90.49773756
1.874,0.010428197,90.49773756
1.875,0.009151272,90.49773756
1.876,0.008832041,90.49773756
1.877,0.009470504,90.49773756
1.878,0.01106666,90.49773756
1.879,0.013939741,90.49773756
1.88,0.017132053,90.49773756
1.881,0.020962827,90.49773756
1.882,0.024793602,90.49773756
1.883,0.028624376,90.49773756
1.884,0.03213592,90.49773756
1.885,0.035328232,90.49773756
1.886,0.03756285,90.49773756
1.887,0.038839775,90.49773756
1.888,0.039159006,90.49773756
1.889,0.038839775,90.49773756
1.89,0.038201313,90.49773756
1.891,0.037243619,90.49773756
1.892,0.036285925,90.49773756
1.893,0.035647463,90.49773756
1.894,0.035647463,90.49773756
1.895,0.036285925,90.49773756
1.896,0.03756285,90.49773756
1.897,0.039797469,90.49773756
1.898,0.042989781,90.49773756
1.899,0.046501324,90.49773756
1.9,0.050332099,90.49773756
1.901,0.054162873,90.49773756
1.902,0.057674417,90.49773756
1.903,0.060547497,90.49773756
1.904,0.062782116,90.49773756
1.905,0.064697503,90.49773756
1.906,0.065655197,90.49773756
1.907,0.065974428,90.49773756
1.908,0.065335966,90.49773756
1.909,0.064059041,90.49773756
1.91,0.062143654,90.49773756
1.911,0.059909035,90.49773756
1.912,0.058312879,90.49773756
1.913,0.057355185,90.49773756
1.914,0.057035954,90.49773756
1.915,0.057355185,90.49773756
1.916,0.058951341,90.49773756
1.917,0.060866729,90.49773756
1.918,0.064059041,90.49773756
1.919,0.067889815,90.49773756
1.92,0.072359052,90.49773756
1.921,0.076828289,90.49773756
1.922,0.081616757,90.49773756
1.923,0.086405226,90.49773756
1.924,0.090236,90.49773756
1.925,0.093747544,90.49773756
1.926,0.096301393,90.49773756
1.927,0.097897549,90.49773756
1.928,0.098536012,90.49773756
1.929,0.098536012,90.49773756
1.93,0.097897549,90.49773756
1.931,0.097578318,90.49773756
1.932,0.097259087,90.49773756
1.933,0.097259087,90.49773756
1.934,0.098216781,90.49773756
1.935,0.100132168,90.49773756
1.936,0.10332448,90.49773756
1.937,0.107155254,90.49773756
1.938,0.112262954,90.49773756
1.939,0.118009116,90.49773756
1.94,0.12439374,90.49773756
1.941,0.130778364,90.49773756
1.942,0.137162988,90.49773756
1.943,0.142589919,90.49773756
1.944,0.147697618,90.49773756
1.945,0.151847624,90.49773756
1.946,0.155359167,90.49773756
1.947,0.157913017,90.49773756
1.948,0.159828404,90.49773756
1.949,0.161105329,90.49773756
1.95,0.161743792,90.49773756
1.951,0.162063023,90.49773756
1.952,0.162382254,90.49773756
1.953,0.163020717,90.49773756
1.954,0.16397841,90.49773756
1.955,0.165893797,90.49773756
1.956,0.168447647,90.49773756
1.957,0.172278422,90.49773756
1.958,0.176747659,90.49773756
1.959,0.181855358,90.49773756
1.96,0.18760152,90.49773756
1.961,0.193347682,90.49773756
1.962,0.198774612,90.49773756
1.963,0.203882312,90.49773756
1.964,0.208032317,90.49773756
1.965,0.210905398,90.49773756
1.966,0.212820786,90.49773756
1.967,0.213778479,90.49773756
1.968,0.213459248,90.49773756
1.969,0.212182323,90.49773756
1.97,0.210266936,90.49773756
1.971,0.208351549,90.49773756
1.972,0.20611693,90.49773756
1.973,0.204201543,90.49773756
1.974,0.202605387,90.49773756
1.975,0.201647693,90.49773756
1.976,0.201328462,90.49773756
1.977,0.201966924,90.49773756
1.978,0.203243849,90.49773756
1.979,0.204840005,90.49773756
1.98,0.207074624,90.49773756
1.981,0.208990011,90.49773756
1.982,0.21122463,90.49773756
1.983,0.212820786,90.49773756
1.984,0.213778479,90.49773756
1.985,0.213778479,90.49773756
1.986,0.212820786,90.49773756
1.987,0.210586167,90.49773756
1.988,0.207713086,90.49773756
1.989,0.204201543,90.49773756
1.99,0.200051537,90.49773756
1.991,0.1955823,90.49773756
1.992,0.191113063,90.49773756
1.993,0.186963057,90.49773756
1.994,0.183451514,90.49773756
1.995,0.180578433,90.49773756
1.996,0.178663046,90.49773756
1.997,0.177386121,90.49773756
1.998,0.17706689,90.49773756
1.999,0.177386121,90.49773756
2,0.178024584,90.49773756
2.001,0.178663046,90.49773756
2.002,0.179301508,90.49773756
2.003,0.179301508,90.49773756
2.004,0.178663046,90.49773756
2.005,0.17706689,90.49773756
2.006,0.174832271,90.49773756
2.007,0.171320728,90.49773756
2.008,0.166851491,90.49773756
2.009,0.162063023,90.49773756
2.01,0.156316861,90.49773756
2.011,0.150889931,90.49773756
2.012,0.145143769,90.49773756
2.013,0.140036069,90.49773756
2.014,0.135566832,90.49773756
2.015,0.132055289,90.49773756
2.016,0.129501439,90.49773756
2.017,0.127905283,90.49773756
2.018,0.127266821,90.49773756
2.019,0.127586052,90.49773756
2.02,0.128543746,90.49773756
2.021,0.129501439,90.49773756
2.022,0.130778364,90.49773756
2.023,0.131736058,90.49773756
2.024,0.131736058,90.49773756
2.025,0.131097595,90.49773756
2.026,0.129501439,90.49773756
2.027,0.12694759,90.49773756
2.028,0.123436046,90.49773756
2.029,0.119286041,90.49773756
2.03,0.114497572,90.49773756
2.031,0.110028335,90.49773756
2.032,0.105559098,90.49773756
2.033,0.101728324,90.49773756
2.034,0.098216781,90.49773756
2.035,0.095662931,90.49773756
2.036,0.094066775,90.49773756
2.037,0.093109081,90.49773756
2.038,0.093109081,90.49773756
2.039,0.093428312,90.49773756
2.04,0.094386006,90.49773756
2.041,0.095024468,90.49773756
2.042,0.095662931,90.49773756
2.043,0.096301393,90.49773756
2.044,0.096301393,90.49773756
2.045,0.095662931,90.49773756
2.046,0.094066775,90.49773756
2.047,0.091832156,90.49773756
2.048,0.088320613,90.49773756
2.049,0.084489838,90.49773756
2.05,0.07970137,90.49773756
2.051,0.074912902,90.49773756
2.052,0.070124434,90.49773756
2.053,0.065335966,90.49773756
2.054,0.06118596,90.49773756
2.055,0.058312879,90.49773756
2.056,0.056078261,90.49773756
2.057,0.055120567,90.49773756
2.058,0.055120567,90.49773756
2.059,0.056078261,90.49773756
2.06,0.057035954,90.49773756
2.061,0.057993648,90.49773756
2.062,0.05863211,90.49773756
2.063,0.05863211,90.49773756
2.064,0.058312879,90.49773756
2.065,0.057035954,90.49773756
2.066,0.054801336,90.49773756
2.067,0.051928255,90.49773756
2.068,0.048735943,90.49773756
2.069,0.044905168,90.49773756
2.07,0.040755162,90.49773756
2.071,0.036924388,90.49773756
2.072,0.033412844,90.49773756
2.073,0.030539764,90.49773756
2.074,0.028305145,90.49773756
2.075,0.027347451,90.49773756
2.076,0.027666683,90.49773756
2.077,0.029262839,90.49773756
2.078,0.031816688,90.49773756
2.079,0.035328232,90.49773756
2.08,0.039797469,90.49773756
2.081,0.044266706,90.49773756
2.082,0.049055174,90.49773756
2.083,0.05320518,90.49773756
2.084,0.056397492,90.49773756
2.085,0.05863211,90.49773756
2.086,0.059909035,90.49773756
2.087,0.060228266,90.49773756
2.088,0.059589804,90.49773756
2.089,0.058312879,90.49773756
2.09,0.056397492,90.49773756
2.091,0.054482104,90.49773756
2.092,0.052885948,90.49773756
2.093,0.051289792,90.49773756
2.094,0.050332099,90.49773756
2.095,0.050012867,90.49773756
2.096,0.050332099,90.49773756
2.097,0.051928255,90.49773756
2.098,0.054162873,90.49773756
2.099,0.057035954,90.49773756
2.1,0.060228266,90.49773756
2.101,0.064059041,90.49773756
2.102,0.067889815,90.49773756
2.103,0.071401359,90.49773756
2.104,0.07427444,90.49773756
2.105,0.076509058,90.49773756
2.106,0.077785983,90.49773756
2.107,0.077785983,90.49773756
2.108,0.077466752,90.49773756
2.109,0.076189827,90.49773756
2.11,0.074912902,90.49773756
2.111,0.073635977,90.49773756
2.112,0.072359052,90.49773756
2.113,0.071401359,90.49773756
2.114,0.071082127,90.49773756
2.115,0.071082127,90.49773756
2.116,0.072359052,90.49773756
2.117,0.073955208,90.49773756
2.118,0.076509058,90.49773756
2.119,0.07970137,90.49773756
2.12,0.082893682,90.49773756
2.121,0.086405226,90.49773756
2.122,0.089597538,90.49773756
2.123,0.092151387,90.49773756
2.124,0.093428312,90.49773756
2.125,0.094066775,90.49773756
2.126,0.093747544,90.49773756
2.127,0.092470619,90.49773756
2.128,0.090555231,90.49773756
2.129,0.088320613,90.49773756
2.13,0.086085994,90.49773756
2.131,0.083532145,90.49773756
2.132,0.081616757,90.49773756
2.133,0.080339833,90.49773756
2.134,0.07970137,90.49773756
2.135,0.080020601,90.49773756
2.136,0.081297526,90.49773756
2.137,0.083532145,90.49773756
2.138,0.086724457,90.49773756
2.139,0.090555231,90.49773756
2.14,0.094705237,90.49773756
2.141,0.098855243,90.49773756
2.142,0.102686017,90.49773756
2.143,0.105559098,90.49773756
2.144,0.107793717,90.49773756
2.145,0.109070642,90.49773756
2.146,0.108751411,90.49773756
2.147,0.107474486,90.49773756
2.148,0.105239867,90.49773756
2.149,0.102047555,90.49773756
2.15,0.098536012,90.49773756
2.151,0.094705237,90.49773756
2.152,0.091193694,90.49773756
2.153,0.088001382,90.49773756
2.154,0.085766763,90.49773756
2.155,0.084489838,90.49773756
2.156,0.084170607,90.49773756
2.157,0.08480907,90.49773756
2.158,0.086405226,90.49773756
2.159,0.088959075,90.49773756
2.16,0.091512925,90.49773756
2.161,0.094386006,90.49773756
2.162,0.096939856,90.49773756
2.163,0.099493705,90.49773756
2.164,0.101409093,90.49773756
2.165,0.102686017,90.49773756
2.166,0.103005249,90.49773756
2.167,0.102366786,90.49773756
2.168,0.10077063,90.49773756
2.169,0.098536012,90.49773756
2.17,0.095662931,90.49773756
2.171,0.09278985,90.49773756
2.172,0.089916769,90.49773756
2.173,0.087682151,90.49773756
2.174,0.086085994,90.49773756
2.175,0.085128301,90.49773756
2.176,0.085128301,90.49773756
2.177,0.086405226,90.49773756
2.178,0.088001382,90.49773756
2.179,0.090236,90.49773756
2.18,0.093109081,90.49773756
2.181,0.095662931,90.49773756
2.182,0.098216781,90.49773756
2.183,0.100132168,90.49773756
2.184,0.101089861,90.49773756
2.185,0.101409093,90.49773756
2.186,0.10077063,90.49773756
2.187,0.099174474,90.49773756
2.188,0.096620624,90.49773756
2.189,0.093428312,90.49773756
2.19,0.089916769,90.49773756
2.191,0.086085994,90.49773756
2.192,0.082893682,90.49773756
2.193,0.07970137,90.49773756
2.194,0.077466752,90.49773756
2.195,0.076189827,90.49773756
2.196,0.075551364,90.49773756
2.197,0.076189827,90.49773756
2.198,0.077466752,90.49773756
2.199,0.079382139,90.49773756
2.2,0.081935989,90.49773756
2.201,0.084489838,90.49773756
2.202,0.086724457,90.49773756
2.203,0.088639844,90.49773756
2.204,0.090236,90.49773756
2.205,0.090874463,90.49773756
2.206,0.091193694,90.49773756
2.207,0.090236,90.49773756
2.208,0.088639844,90.49773756
2.209,0.086085994,90.49773756
2.21,0.083212914,90.49773756
2.211,0.080339833,90.49773756
2.212,0.077147521,90.49773756
2.213,0.074912902,90.49773756
2.214,0.072997515,90.49773756
2.215,0.072359052,90.49773756
2.216,0.072039821,90.49773756
2.217,0.072678284,90.49773756
2.218,0.073955208,90.49773756
2.219,0.075551364,90.49773756
2.22,0.077785983,90.49773756
2.221,0.07970137,90.49773756
2.222,0.081297526,90.49773756
2.223,0.082574451,90.49773756
2.224,0.083212914,90.49773756
2.225,0.082893682,90.49773756
2.226,0.081935989,90.49773756
2.227,0.080339833,90.49773756
2.228,0.078105214,90.49773756
2.229,0.075551364,90.49773756
2.23,0.072678284,90.49773756
2.231,0.069805203,90.49773756
2.232,0.067570584,90.49773756
2.233,0.065655197,90.49773756
2.234,0.064378272,90.49773756
2.235,0.064378272,90.49773756
2.236,0.065335966,90.49773756
2.237,0.067889815,90.49773756
2.238,0.071082127,90.49773756
2.239,0.074912902,90.49773756
2.24,0.079062908,90.49773756
2.241,0.082893682,90.49773756
2.242,0.086405226,90.49773756
2.243,0.088959075,90.49773756
2.244,0.090555231,90.49773756
2.245,0.090874463,90.49773756
2.246,0.090555231,90.49773756
2.247,0.088959075,90.49773756
2.248,0.086405226,90.49773756
2.249,0.083212914,90.49773756
2.25,0.079382139,90.49773756
2.251,0.074912902,90.49773756
2.252,0.070443665,90.49773756
2.253,0.066293659,90.49773756
2.254,0.062462885,90.49773756
2.255,0.059909035,90.49773756
2.256,0.057993648,90.49773756
2.257,0.057355185,90.49773756
2.258,0.057674417,90.49773756
2.259,0.058951341,90.49773756
2.26,0.060547497,90.49773756
2.261,0.062462885,90.49773756
2.262,0.064697503,90.49773756
2.263,0.066612891,90.49773756
2.264,0.068528278,90.49773756
2.265,0.069485971,90.49773756
2.266,0.070443665,90.49773756
2.267,0.070443665,90.49773756
2.268,0.070443665,90.49773756
2.269,0.069805203,90.49773756
2.27,0.06916674,90.49773756
2.271,0.068847509,90.49773756
2.272,0.068209047,90.49773756
2.273,0.068209047,90.49773756
2.274,0.068528278,90.49773756
2.275,0.069485971,90.49773756
2.276,0.071082127,90.49773756
2.277,0.073316746,90.49773756
2.278,0.076189827,90.49773756
2.279,0.07970137,90.49773756
2.28,0.083212914,90.49773756
2.281,0.086405226,90.49773756
2.282,0.089278307,90.49773756
2.283,0.091193694,90.49773756
2.284,0.092151387,90.49773756
2.285,0.091832156,90.49773756
2.286,0.090555231,90.49773756
2.287,0.088639844,90.49773756
2.288,0.085447532,90.49773756
2.289,0.081616757,90.49773756
2.29,0.077785983,90.49773756
2.291,0.073955208,90.49773756
2.292,0.070762896,90.49773756
2.293,0.068209047,90.49773756
2.294,0.066932122,90.49773756
2.295,0.066293659,90.49773756
2.296,0.066293659,90.49773756
2.297,0.066932122,90.49773756
2.298,0.068528278,90.49773756
2.299,0.070443665,90.49773756
2.3,0.072678284,90.49773756
2.301,0.074912902,90.49773756
2.302,0.076828289,90.49773756
2.303,0.078105214,90.49773756
2.304,0.078743677,90.49773756
2.305,0.078424445,90.49773756
2.306,0.077147521,90.49773756
2.307,0.075232133,90.49773756
2.308,0.072359052,90.49773756
2.309,0.068847509,90.49773756
2.31,0.065335966,90.49773756
2.311,0.062143654,90.49773756
2.312,0.059270573,90.49773756
2.313,0.057035954,90.49773756
2.314,0.056078261,90.49773756
2.315,0.056397492,90.49773756
2.316,0.057674417,90.49773756
2.317,0.060547497,90.49773756
2.318,0.064378272,90.49773756
2.319,0.06916674,90.49773756
2.32,0.074593671,90.49773756
2.321,0.080020601,90.49773756
2.322,0.085128301,90.49773756
2.323,0.089597538,90.49773756
2.324,0.093747544,90.49773756
2.325,0.096620624,90.49773756
2.326,0.098536012,90.49773756
2.327,0.099174474,90.49773756
2.328,0.098855243,90.49773756
2.329,0.097578318,90.49773756
2.33,0.095662931,90.49773756
2.331,0.093428312,90.49773756
2.332,0.090555231,90.49773756
2.333,0.088001382,90.49773756
2.334,0.085766763,90.49773756
2.335,0.084170607,90.49773756
2.336,0.083212914,90.49773756
2.337,0.082574451,90.49773756
2.338,0.082574451,90.49773756
2.339,0.083212914,90.49773756
2.34,0.083851376,90.49773756
2.341,0.084489838,90.49773756
2.342,0.084489838,90.49773756
2.343,0.084170607,90.49773756
2.344,0.083212914,90.49773756
2.345,0.081616757,90.49773756
2.346,0.07970137,90.49773756
2.347,0.077147521,90.49773756
2.348,0.074593671,90.49773756
2.349,0.072039821,90.49773756
2.35,0.06916674,90.49773756
2.351,0.066932122,90.49773756
2.352,0.065335966,90.49773756
2.353,0.064378272,90.49773756
2.354,0.064378272,90.49773756
2.355,0.065655197,90.49773756
2.356,0.068528278,90.49773756
2.357,0.072359052,90.49773756
2.358,0.077466752,90.49773756
2.359,0.082893682,90.49773756
2.36,0.088639844,90.49773756
2.361,0.094066775,90.49773756
2.362,0.099493705,90.49773756
2.363,0.103962942,90.49773756
2.364,0.107474486,90.49773756
2.365,0.110028335,90.49773756
2.366,0.11130526,90.49773756
2.367,0.111624491,90.49773756
2.368,0.110986029,90.49773756
2.369,0.109709104,90.49773756
2.37,0.108112948,90.49773756
2.371,0.106836023,90.49773756
2.372,0.105559098,90.49773756
2.373,0.105239867,90.49773756
2.374,0.105559098,90.49773756
2.375,0.106516792,90.49773756
2.376,0.108432179,90.49773756
2.377,0.110986029,90.49773756
2.378,0.114497572,90.49773756
2.379,0.118647578,90.49773756
2.38,0.123436046,90.49773756
2.381,0.128543746,90.49773756
2.382,0.133332214,90.49773756
2.383,0.138120682,90.49773756
2.384,0.142270688,90.49773756
2.385,0.145463,90.49773756
2.386,0.147697618,90.49773756
2.387,0.148655312,90.49773756
2.388,0.148974543,90.49773756
2.389,0.148655312,90.49773756
2.39,0.14801685,90.49773756
2.391,0.147059156,90.49773756
2.392,0.146101462,90.49773756
2.393,0.145143769,90.49773756
2.394,0.144505306,90.49773756
2.395,0.144505306,90.49773756
2.396,0.145463,90.49773756
2.397,0.147378387,90.49773756
2.398,0.149932237,90.49773756
2.399,0.153124549,90.49773756
2.4,0.156636092,90.49773756
2.401,0.160147636,90.49773756
2.402,0.163339948,90.49773756
2.403,0.16653226,90.49773756
2.404,0.16908611,90.49773756
2.405,0.171001497,90.49773756
2.406,0.172278422,90.49773756
2.407,0.173236115,90.49773756
2.408,0.173555347,90.49773756
2.409,0.173555347,90.49773756
2.41,0.173555347,90.49773756
2.411,0.173236115,90.49773756
2.412,0.173236115,90.49773756
2.413,0.173236115,90.49773756
2.414,0.173236115,90.49773756
2.415,0.173555347,90.49773756
2.416,0.173874578,90.49773756
2.417,0.174193809,90.49773756
2.418,0.17451304,90.49773756
2.419,0.17451304,90.49773756
2.42,0.173874578,90.49773756
2.421,0.172278422,90.49773756
2.422,0.170043803,90.49773756
2.423,0.16653226,90.49773756
2.424,0.162063023,90.49773756
2.425,0.156636092,90.49773756
2.426,0.149932237,90.49773756
2.427,0.142270688,90.49773756
2.428,0.134289907,90.49773756
2.429,0.125670665,90.49773756
2.43,0.117370653,90.49773756
2.431,0.109389873,90.49773756
2.432,0.102047555,90.49773756
2.433,0.0953437,90.49773756
2.434,0.089916769,90.49773756
2.435,0.085766763,90.49773756
2.436,0.082893682,90.49773756
2.437,0.081297526,90.49773756
2.438,0.080978295,90.49773756
2.439,0.080978295,90.49773756
2.44,0.081935989,90.49773756
2.441,0.082893682,90.49773756
2.442,0.083851376,90.49773756
2.443,0.084489838,90.49773756
2.444,0.08480907,90.49773756
2.445,0.084170607,90.49773756
2.446,0.083212914,90.49773756
2.447,0.081297526,90.49773756
2.448,0.079062908,90.49773756
2.449,0.076509058,90.49773756
2.45,0.07427444,90.49773756
2.451,0.07172059,90.49773756
2.452,0.069805203,90.49773756
2.453,0.068528278,90.49773756
2.454,0.068209047,90.49773756
2.455,0.068209047,90.49773756
2.456,0.06916674,90.49773756
2.457,0.070124434,90.49773756
2.458,0.071082127,90.49773756
2.459,0.07172059,90.49773756
2.46,0.07172059,90.49773756
2.461,0.071082127,90.49773756
2.462,0.06916674,90.49773756
2.463,0.066293659,90.49773756
2.464,0.062143654,90.49773756
2.465,0.056716723,90.49773756
2.466,0.05065133,90.49773756
2.467,0.044266706,90.49773756
2.468,0.037882081,90.49773756
2.469,0.031816688,90.49773756
2.47,0.026708989,90.49773756
2.471,0.023197446,90.49773756
2.472,0.021920521,90.49773756
2.473,0.023197446,90.49773756
2.474,0.027666683,90.49773756
2.475,0.035328232,90.49773756
2.476,0.047139787,90.49773756
2.477,0.063101347,90.49773756
2.478,0.083212914,90.49773756
2.479,0.107474486,90.49773756
2.48,0.135247601,90.49773756
2.481,0.166851491,90.49773756
2.482,0.202286156,90.49773756
2.483,0.241232364,90.49773756
2.484,0.283690115,90.49773756
2.485,0.329340178,90.49773756
2.486,0.377863322,90.49773756
2.487,0.42989801,90.49773756
2.488,0.484805778,90.49773756
2.489,0.542586628,90.49773756
2.49,0.602921327,90.49773756
2.491,0.664852182,90.49773756
2.492,0.727102268,90.49773756
2.493,0.788713892,90.49773756
2.494,0.848410129,90.49773756
2.495,0.904594822,90.49773756
2.496,0.955991048,90.49773756
2.497,1.001641111,90.49773756
2.498,1.040587319,90.49773756
2.499,1.071233515,90.49773756
2.5,1.092941238,90.49773756
2.501,1.10411433,90.49773756
2.502,1.103795099,90.49773756
2.503,1.091983544,90.49773756
2.504,1.068041203,90.49773756
2.505,1.032287307,90.49773756
2.506,0.985360319,90.49773756
2.507,0.928217932,90.49773756
2.508,0.862137071,90.49773756
2.509,0.789033124,90.49773756
2.51,0.710502245,90.49773756
2.511,0.628459824,82.53094911
2.512,0.544821246,82.53094911
2.513,0.461182669,82.53094911
2.514,0.378821016,82.53094911
2.515,0.299332444,82.53094911
2.516,0.222716953,82.53094911
2.517,0.149932237,82.53094911
2.518,0.081297526,82.53094911
2.519,0.017132053,82.53094911
2.52,-0.042244953,82.53094911
2.521,-0.096514259,82.53094911
2.522,-0.145356634,82.53094911
2.523,-0.188452848,82.53094911
2.524,-0.2258029,82.53094911
2.525,-0.25740679,82.53094911
2.526,-0.283264518,82.53094911
2.527,-0.303056853,82.53094911
2.528,-0.316783795,82.53094911
2.529,-0.324764576,82.53094911
2.53,-0.326679963,82.53094911
2.531,-0.322849188,82.53094911
2.532,-0.313591483,82.53094911
2.533,-0.299226079,82.53094911
2.534,-0.279752975,82.53094911
2.535,-0.256129865,82.53094911
2.536,-0.228995212,82.53094911
2.537,-0.199306709,82.53094911
2.538,-0.16802205,82.53094911
2.539,-0.136098929,82.53094911
2.54,-0.105133502,82.53094911
2.541,-0.076083461,82.53094911
2.542,-0.049906502,82.53094911
2.543,-0.027241086,82.53094911
2.544,-0.008725676,82.53094911
2.545,0.00595896,82.53094911
2.546,0.016174359,82.53094911
2.547,0.022878214,82.53094911
2.548,0.025751295,82.53094911
2.549,0.025751295,82.53094911
2.55,0.022878214,82.53094911
2.551,0.018728209,82.53094911
2.552,0.013620509,82.53094911
2.553,0.00851281,82.53094911
2.554,0.004043573,82.53094911
2.555,0.000212798,82.53094911
2.556,-0.002341051,82.53094911
2.557,-0.003298745,82.53094911
2.558,-0.002660283,82.53094911
2.559,-0.000744895,82.53094911
2.56,0.002128186,82.53094911
2.561,0.00595896,82.53094911
2.562,0.009789735,82.53094911
2.563,0.013939741,82.53094911
2.564,0.017770515,82.53094911
2.565,0.021282058,82.53094911
2.566,0.023835908,82.53094911
2.567,0.026070527,82.53094911
2.568,0.027666683,82.53094911
2.569,0.028943607,82.53094911
2.57,0.029901301,82.53094911
2.571,0.030858995,82.53094911
2.572,0.032455151,82.53094911
2.573,0.034051307,82.53094911
2.574,0.036285925,82.53094911
2.575,0.039159006,82.53094911
2.576,0.042351318,82.53094911
2.577,0.045862862,82.53094911
2.578,0.049693636,82.53094911
2.579,0.05320518,82.53094911
2.58,0.057035954,82.53094911
2.581,0.060228266,82.53094911
2.582,0.062782116,82.53094911
2.583,0.064697503,82.53094911
2.584,0.065655197,82.53094911
2.585,0.065655197,82.53094911
2.586,0.064697503,82.53094911
2.587,0.062782116,82.53094911
2.588,0.060228266,82.53094911
2.589,0.057355185,82.53094911
2.59,0.054162873,82.53094911
2.591,0.051289792,82.53094911
2.592,0.049055174,82.53094911
2.593,0.047778249,82.53094911
2.594,0.047139787,82.53094911
2.595,0.04809748,82.53094911
2.596,0.049693636,82.53094911
2.597,0.052566717,82.53094911
2.598,0.055759029,82.53094911
2.599,0.059589804,82.53094911
2.6,0.06373981,82.53094911
2.601,0.067889815,82.53094911
2.602,0.071082127,82.53094911
2.603,0.073955208,82.53094911
2.604,0.075551364,82.53094911
2.605,0.076509058,82.53094911
2.606,0.075870596,82.53094911
2.607,0.074593671,82.53094911
2.608,0.072678284,82.53094911
2.609,0.070762896,82.53094911
2.61,0.068528278,82.53094911
2.611,0.066932122,82.53094911
2.612,0.065655197,82.53094911
2.613,0.065016734,82.53094911
2.614,0.065335966,82.53094911
2.615,0.066932122,82.53094911
2.616,0.069805203,82.53094911
2.617,0.073316746,82.53094911
2.618,0.077785983,82.53094911
2.619,0.082574451,82.53094911
2.62,0.088001382,82.53094911
2.621,0.09278985,82.53094911
2.622,0.097578318,82.53094911
2.623,0.101728324,82.53094911
2.624,0.104920636,82.53094911
2.625,0.107155254,82.53094911
2.626,0.108112948,82.53094911
2.627,0.108432179,82.53094911
2.628,0.107793717,82.53094911
2.629,0.106836023,82.53094911
2.63,0.105239867,82.53094911
2.631,0.103643711,82.53094911
2.632,0.102047555,82.53094911
2.633,0.101089861,82.53094911
2.634,0.10077063,82.53094911
2.635,0.101089861,82.53094911
2.636,0.102366786,82.53094911
2.637,0.104601405,82.53094911
2.638,0.107155254,82.53094911
2.639,0.110347567,82.53094911
2.64,0.113539879,82.53094911
2.641,0.11641296,82.53094911
2.642,0.118966809,82.53094911
2.643,0.120562965,82.53094911
2.644,0.12183989,82.53094911
2.645,0.122159121,82.53094911
2.646,0.12183989,82.53094911
2.647,0.121201428,82.53094911
2.648,0.120243734,82.53094911
2.649,0.118966809,82.53094911
2.65,0.118328347,82.53094911
2.651,0.117689884,82.53094911
2.652,0.117689884,82.53094911
2.653,0.118647578,82.53094911
2.654,0.120562965,82.53094911
2.655,0.123755277,82.53094911
2.656,0.128224514,82.53094911
2.657,0.133332214,82.53094911
2.658,0.139078376,82.53094911
2.659,0.145463,82.53094911
2.66,0.152166855,82.53094911
2.661,0.158232248,82.53094911
2.662,0.164297641,82.53094911
2.663,0.16908611,82.53094911
2.664,0.173236115,82.53094911
2.665,0.176109196,82.53094911
2.666,0.178343815,82.53094911
2.667,0.17962074,82.53094911
2.668,0.180259202,82.53094911
2.669,0.180578433,82.53094911
2.67,0.180897664,82.53094911
2.671,0.181536127,82.53094911
2.672,0.182493821,82.53094911
2.673,0.184089977,82.53094911
2.674,0.186643826,82.53094911
2.675,0.19015537,82.53094911
2.676,0.194305375,82.53094911
2.677,0.199413075,82.53094911
2.678,0.205159237,82.53094911
2.679,0.211543861,82.53094911
2.68,0.218247716,82.53094911
2.681,0.224951572,82.53094911
2.682,0.231336196,82.53094911
2.683,0.236763127,82.53094911
2.684,0.241232364,82.53094911
2.685,0.244743907,82.53094911
2.686,0.246978525,82.53094911
2.687,0.247936219,82.53094911
2.688,0.247936219,82.53094911
2.689,0.246978525,82.53094911
2.69,0.246020832,82.53094911
2.691,0.245382369,82.53094911
2.692,0.244743907,82.53094911
2.693,0.244424676,82.53094911
2.694,0.244424676,82.53094911
2.695,0.245063138,82.53094911
2.696,0.246340063,82.53094911
2.697,0.24825545,82.53094911
2.698,0.250490069,82.53094911
2.699,0.252724687,82.53094911
2.7,0.255278537,82.53094911
2.701,0.257513155,82.53094911
2.702,0.25879008,82.53094911
2.703,0.259428543,82.53094911
2.704,0.259109311,82.53094911
2.705,0.258151618,82.53094911
2.706,0.256236231,82.53094911
2.707,0.254001612,82.53094911
2.708,0.251128531,82.53094911
2.709,0.247936219,82.53094911
2.71,0.244743907,82.53094911
2.711,0.241232364,82.53094911
2.712,0.238359283,82.53094911
2.713,0.236124664,82.53094911
2.714,0.234847739,82.53094911
2.715,0.234209277,82.53094911
2.716,0.234528508,82.53094911
2.717,0.235486202,82.53094911
2.718,0.237082358,82.53094911
2.719,0.238997745,82.53094911
2.72,0.240913132,82.53094911
2.721,0.242509288,82.53094911
2.722,0.243147751,82.53094911
2.723,0.243466982,82.53094911
2.724,0.242190057,82.53094911
2.725,0.239955439,82.53094911
2.726,0.236443895,82.53094911
2.727,0.231974658,82.53094911
2.728,0.226228497,82.53094911
2.729,0.220482335,82.53094911
2.73,0.214097711,82.53094911
2.731,0.208032317,82.53094911
2.732,0.202605387,82.53094911
2.733,0.197816919,82.53094911
2.734,0.193986144,82.53094911
2.735,0.190793832,82.53094911
2.736,0.188559214,82.53094911
2.737,0.186963057,82.53094911
2.738,0.186005364,82.53094911
2.739,0.185686133,82.53094911
2.74,0.185686133,82.53094911
2.741,0.185686133,82.53094911
2.742,0.185686133,82.53094911
2.743,0.18504767,82.53094911
2.744,0.184089977,82.53094911
2.745,0.182493821,82.53094911
2.746,0.180259202,82.53094911
2.747,0.17706689,82.53094911
2.748,0.173555347,82.53094911
2.749,0.169724572,82.53094911
2.75,0.165893797,82.53094911
2.751,0.162382254,82.53094911
2.752,0.159189942,82.53094911
2.753,0.156636092,82.53094911
2.754,0.154720705,82.53094911
2.755,0.153763011,82.53094911
2.756,0.153763011,82.53094911
2.757,0.154082243,82.53094911
2.758,0.155039936,82.53094911
2.759,0.15599763,82.53094911
2.76,0.156955324,82.53094911
2.761,0.157593786,82.53094911
2.762,0.157593786,82.53094911
2.763,0.156955324,82.53094911
2.764,0.155359167,82.53094911
2.765,0.153124549,82.53094911
2.766,0.149932237,82.53094911
2.767,0.146101462,82.53094911
2.768,0.141632225,82.53094911
2.769,0.136843757,82.53094911
2.77,0.13237452,82.53094911
2.771,0.128224514,82.53094911
2.772,0.124712971,82.53094911
2.773,0.121520659,82.53094911
2.774,0.119286041,82.53094911
2.775,0.118009116,82.53094911
2.776,0.117689884,82.53094911
2.777,0.117689884,82.53094911
2.778,0.118009116,82.53094911
2.779,0.118647578,82.53094911
2.78,0.119286041,82.53094911
2.781,0.119605272,82.53094911
2.782,0.119286041,82.53094911
2.783,0.118328347,82.53094911
2.784,0.116732191,82.53094911
2.785,0.114178341,82.53094911
2.786,0.110986029,82.53094911
2.787,0.107474486,82.53094911
2.788,0.10332448,82.53094911
2.789,0.099174474,82.53094911
2.79,0.095024468,82.53094911
2.791,0.091512925,82.53094911
2.792,0.088639844,82.53094911
2.793,0.086724457,82.53094911
2.794,0.086085994,82.53094911
2.795,0.086405226,82.53094911
2.796,0.087682151,82.53094911
2.797,0.090236,82.53094911
2.798,0.093428312,82.53094911
2.799,0.097259087,82.53094911
2.8,0.10077063,82.53094911
2.801,0.104282174,82.53094911
2.802,0.107155254,82.53094911
2.803,0.109389873,82.53094911
2.804,0.110347567,82.53094911
2.805,0.110347567,82.53094911
2.806,0.109389873,82.53094911
2.807,0.107474486,82.53094911
2.808,0.104920636,82.53094911
2.809,0.102047555,82.53094911
2.81,0.099493705,82.53094911
2.811,0.096939856,82.53094911
2.812,0.095024468,82.53094911
2.813,0.093428312,82.53094911
2.814,0.09278985,82.53094911
2.815,0.093109081,82.53094911
2.816,0.094386006,82.53094911
2.817,0.096620624,82.53094911
2.818,0.099493705,82.53094911
2.819,0.102686017,82.53094911
2.82,0.10587833,82.53094911
2.821,0.109389873,82.53094911
2.822,0.112582185,82.53094911
2.823,0.115136035,82.53094911
2.824,0.116732191,82.53094911
2.825,0.118009116,82.53094911
2.826,0.118328347,82.53094911
2.827,0.118009116,82.53094911
2.828,0.117370653,82.53094911
2.829,0.116093728,82.53094911
2.83,0.114816804,82.53094911
2.831,0.113539879,82.53094911
2.832,0.112901416,82.53094911
2.833,0.112901416,82.53094911
2.834,0.113539879,82.53094911
2.835,0.114816804,82.53094911
2.836,0.116732191,82.53094911
2.837,0.119286041,82.53094911
2.838,0.12183989,82.53094911
2.839,0.124712971,82.53094911
2.84,0.127905283,82.53094911
2.841,0.131097595,82.53094911
2.842,0.133970676,82.53094911
2.843,0.135886064,82.53094911
2.844,0.136843757,82.53094911
2.845,0.13748222,82.53094911
2.846,0.13748222,82.53094911
2.847,0.136843757,82.53094911
2.848,0.135566832,82.53094911
2.849,0.134289907,82.53094911
2.85,0.133012983,82.53094911
2.851,0.132055289,82.53094911
2.852,0.131097595,82.53094911
2.853,0.130778364,82.53094911
2.854,0.130778364,82.53094911
2.855,0.131416827,82.53094911
2.856,0.132693751,82.53094911
2.857,0.134289907,82.53094911
2.858,0.136205295,82.53094911
2.859,0.138439913,82.53094911
2.86,0.140355301,82.53094911
2.861,0.141951457,82.53094911
2.862,0.14290915,82.53094911
2.863,0.143547613,82.53094911
2.864,0.143228381,82.53094911
2.865,0.141951457,82.53094911
2.866,0.140036069,82.53094911
2.867,0.137801451,82.53094911
2.868,0.135247601,82.53094911
2.869,0.133012983,82.53094911
2.87,0.131097595,82.53094911
2.871,0.129820671,82.53094911
2.872,0.129820671,82.53094911
2.873,0.130459133,82.53094911
2.874,0.132055289,82.53094911
2.875,0.13492837,82.53094911
2.876,0.138120682,82.53094911
2.877,0.141951457,82.53094911
2.878,0.146101462,82.53094911
2.879,0.149932237,82.53094911
2.88,0.15344378,82.53094911
2.881,0.156316861,82.53094911
2.882,0.15855148,82.53094911
2.883,0.159828404,82.53094911
2.884,0.159828404,82.53094911
2.885,0.15855148,82.53094911
2.886,0.15599763,82.53094911
2.887,0.152486087,82.53094911
2.888,0.148336081,82.53094911
2.889,0.143866844,82.53094911
2.89,0.139397607,82.53094911
2.891,0.135247601,82.53094911
2.892,0.131416827,82.53094911
2.893,0.128862977,82.53094911
2.894,0.12694759,82.53094911
2.895,0.126309127,82.53094911
2.896,0.126309127,82.53094911
2.897,0.127586052,82.53094911
2.898,0.129182208,82.53094911
2.899,0.131416827,82.53094911
2.9,0.133651445,82.53094911
2.901,0.135566832,82.53094911
2.902,0.137801451,82.53094911
2.903,0.139397607,82.53094911
2.904,0.140355301,82.53094911
2.905,0.140674532,82.53094911
2.906,0.140674532,82.53094911
2.907,0.139716838,82.53094911
2.908,0.138120682,82.53094911
2.909,0.135886064,82.53094911
2.91,0.133970676,82.53094911
2.911,0.131736058,82.53094911
2.912,0.129820671,82.53094911
2.913,0.128224514,82.53094911
2.914,0.127905283,82.53094911
2.915,0.127905283,82.53094911
2.916,0.128862977,82.53094911
2.917,0.130459133,82.53094911
2.918,0.13237452,82.53094911
2.919,0.133970676,82.53094911
2.92,0.135247601,82.53094911
2.921,0.136205295,82.53094911
2.922,0.136843757,82.53094911
2.923,0.136524526,82.53094911
2.924,0.135886064,82.53094911
2.925,0.134289907,82.53094911
2.926,0.13237452,82.53094911
2.927,0.130139902,82.53094911
2.928,0.127266821,82.53094911
2.929,0.12439374,82.53094911
2.93,0.122159121,82.53094911
2.931,0.120562965,82.53094911
2.932,0.119605272,82.53094911
2.933,0.119605272,82.53094911
2.934,0.120562965,82.53094911
2.935,0.122159121,82.53094911
2.936,0.124712971,82.53094911
2.937,0.127905283,82.53094911
2.938,0.131416827,82.53094911
2.939,0.135247601,82.53094911
2.94,0.138759144,82.53094911
2.941,0.141951457,82.53094911
2.942,0.144505306,82.53094911
2.943,0.146101462,82.53094911
2.944,0.147059156,82.53094911
2.945,0.147059156,82.53094911
2.946,0.145782231,82.53094911
2.947,0.143866844,82.53094911
2.948,0.140993763,82.53094911
2.949,0.138120682,82.53094911
2.95,0.135247601,82.53094911
2.951,0.132693751,82.53094911
2.952,0.130778364,82.53094911
2.953,0.129501439,82.53094911
2.954,0.128862977,82.53094911
2.955,0.129182208,82.53094911
2.956,0.130139902,82.53094911
2.957,0.131416827,82.53094911
2.958,0.133012983,82.53094911
2.959,0.13492837,82.53094911
2.96,0.136524526,82.53094911
2.961,0.137801451,82.53094911
2.962,0.138759144,82.53094911
2.963,0.139078376,82.53094911
2.964,0.139078376,82.53094911
2.965,0.138120682,82.53094911
2.966,0.136843757,82.53094911
2.967,0.134609139,82.53094911
2.968,0.13237452,82.53094911
2.969,0.129820671,82.53094911
2.97,0.127586052,82.53094911
2.971,0.125670665,82.53094911
2.972,0.12439374,82.53094911
2.973,0.123436046,82.53094911
2.974,0.123436046,82.53094911
2.975,0.12439374,82.53094911
2.976,0.125670665,82.53094911
2.977,0.127905283,82.53094911
2.978,0.130139902,82.53094911
2.979,0.13237452,82.53094911
2.98,0.134289907,82.53094911
2.981,0.135886064,82.53094911
2.982,0.136524526,82.53094911
2.983,0.136524526,82.53094911
2.984,0.135886064,82.53094911
2.985,0.134609139,82.53094911
2.986,0.132693751,82.53094911
2.987,0.130139902,82.53094911
2.988,0.127266821,82.53094911
2.989,0.12439374,82.53094911
2.99,0.12183989,82.53094911
2.991,0.120243734,82.53094911
2.992,0.119924503,82.53094911
2.993,0.120243734,82.53094911
2.994,0.12183989,82.53094911
2.995,0.124074509,82.53094911
2.996,0.127266821,82.53094911
2.997,0.130459133,82.53094911
2.998,0.134289907,82.53094911
2.999,0.137801451,82.53094911
3,0.140674532,82.53094911
3.001,0.143228381,82.53094911
3.002,0.144824537,82.53094911
3.003,0.145463,82.53094911
3.004,0.144824537,82.53094911
3.005,0.143228381,82.53094911
3.006,0.140355301,82.53094911
3.007,0.136843757,82.53094911
3.008,0.132693751,82.53094911
3.009,0.128224514,82.53094911
3.01,0.124074509,82.53094911
3.011,0.120562965,82.53094911
3.012,0.117689884,82.53094911
3.013,0.11641296,82.53094911
3.014,0.116093728,82.53094911
3.015,0.116732191,82.53094911
3.016,0.118647578,82.53094911
3.017,0.121520659,82.53094911
3.018,0.125032202,82.53094911
3.019,0.128862977,82.53094911
3.02,0.132693751,82.53094911
3.021,0.136205295,82.53094911
3.022,0.139078376,82.53094911
3.023,0.141312994,82.53094911
3.024,0.14290915,82.53094911
3.025,0.143547613,82.53094911
3.026,0.143228381,82.53094911
3.027,0.142270688,82.53094911
3.028,0.140674532,82.53094911
3.029,0.139078376,82.53094911
3.03,0.137162988,82.53094911
3.031,0.135566832,82.53094911
3.032,0.134289907,82.53094911
3.033,0.133651445,82.53094911
3.034,0.133651445,82.53094911
3.035,0.134289907,82.53094911
3.036,0.135566832,82.53094911
3.037,0.137162988,82.53094911
3.038,0.139078376,82.53094911
3.039,0.140674532,82.53094911
3.04,0.142270688,82.53094911
3.041,0.143547613,82.53094911
3.042,0.143866844,82.53094911
3.043,0.143547613,82.53094911
3.044,0.142270688,82.53094911
3.045,0.140355301,82.53094911
3.046,0.137801451,82.53094911
3.047,0.134609139,82.53094911
3.048,0.131097595,82.53094911
3.049,0.127905283,82.53094911
3.05,0.124712971,82.53094911
3.051,0.122478353,82.53094911
3.052,0.120882197,82.53094911
3.053,0.120562965,82.53094911
3.054,0.12183989,82.53094911
3.055,0.124074509,82.53094911
3.056,0.127266821,82.53094911
3.057,0.131097595,82.53094911
3.058,0.13492837,82.53094911
3.059,0.139078376,82.53094911
3.06,0.14290915,82.53094911
3.061,0.146101462,82.53094911
3.062,0.148655312,82.53094911
3.063,0.150251468,82.53094911
3.064,0.150570699,82.53094911
3.065,0.150251468,82.53094911
3.066,0.148336081,82.53094911
3.067,0.146101462,82.53094911
3.068,0.14290915,82.53094911
3.069,0.139716838,82.53094911
3.07,0.136205295,82.53094911
3.071,0.133332214,82.53094911
3.072,0.130778364,82.53094911
3.073,0.129182208,82.53094911
3.074,0.128543746,82.53094911
3.075,0.129182208,82.53094911
3.076,0.130459133,82.53094911
3.077,0.132693751,82.53094911
3.078,0.135247601,82.53094911
3.079,0.138120682,82.53094911
3.08,0.140993763,82.53094911
3.081,0.143547613,82.53094911
3.082,0.145782231,82.53094911
3.083,0.147697618,82.53094911
3.084,0.148655312,82.53094911
3.085,0.148655312,82.53094911
3.086,0.147697618,82.53094911
3.087,0.145782231,82.53094911
3.088,0.143866844,82.53094911
3.089,0.141632225,82.53094911
3.09,0.139397607,82.53094911
3.091,0.137801451,82.53094911
3.092,0.136843757,82.53094911
3.093,0.136843757,82.53094911
3.094,0.137801451,82.53094911
3.095,0.139716838,82.53094911
3.096,0.142270688,82.53094911
3.097,0.145463,82.53094911
3.098,0.149293774,82.53094911
3.099,0.153124549,82.53094911
3.1,0.156636092,82.53094911
3.101,0.159828404,82.53094911
3.102,0.162701485,82.53094911
3.103,0.164936104,82.53094911
3.104,0.166213029,82.53094911
3.105,0.167170722,82.53094911
3.106,0.167170722,82.53094911
3.107,0.167170722,82.53094911
3.108,0.166851491,82.53094911
3.109,0.166213029,82.53094911
3.11,0.165893797,82.53094911
3.111,0.166213029,82.53094911
3.112,0.166851491,82.53094911
3.113,0.168447647,82.53094911
3.114,0.171320728,82.53094911
3.115,0.174832271,82.53094911
3.116,0.179301508,82.53094911
3.117,0.184409208,82.53094911
3.118,0.189836138,82.53094911
3.119,0.195263069,82.53094911
3.12,0.200370768,82.53094911
3.121,0.204840005,82.53094911
3.122,0.20867078,82.53094911
3.123,0.211543861,82.53094911
3.124,0.213140017,82.53094911
3.125,0.214097711,82.53094911
3.126,0.214097711,82.53094911
3.127,0.213778479,82.53094911
3.128,0.213140017,82.53094911
3.129,0.212501554,82.53094911
3.13,0.211863092,82.53094911
3.131,0.211863092,82.53094911
3.132,0.212182323,82.53094911
3.133,0.213459248,82.53094911
3.134,0.215374635,82.53094911
3.135,0.217928485,82.53094911
3.136,0.221120797,82.53094911
3.137,0.224951572,82.53094911
3.138,0.229101577,82.53094911
3.139,0.233570814,82.53094911
3.14,0.238040051,82.53094911
3.141,0.242190057,82.53094911
3.142,0.246020832,82.53094911
3.143,0.249213144,82.53094911
3.144,0.252086225,82.53094911
3.145,0.254001612,82.53094911
3.146,0.255597768,82.53094911
3.147,0.256555462,82.53094911
3.148,0.256874693,82.53094911
3.149,0.256874693,82.53094911
3.15,0.256874693,82.53094911
3.151,0.257193924,82.53094911
3.152,0.257513155,82.53094911
3.153,0.25879008,82.53094911
3.154,0.260705467,82.53094911
3.155,0.262940086,82.53094911
3.156,0.265493936,82.53094911
3.157,0.268367017,82.53094911
3.158,0.270920866,82.53094911
3.159,0.272517022,82.53094911
3.16,0.273155485,82.53094911
3.161,0.272197791,82.53094911
3.162,0.269643941,82.53094911
3.163,0.265813167,82.53094911
3.164,0.260386236,82.53094911
3.165,0.253682381,82.53094911
3.166,0.246020832,82.53094911
3.167,0.23772082,82.53094911
3.168,0.229101577,82.53094911
3.169,0.220801566,82.53094911
3.17,0.212501554,82.53094911
3.171,0.205159237,82.53094911
3.172,0.19813615,82.53094911
3.173,0.192070757,82.53094911
3.174,0.186963057,82.53094911
3.175,0.182813052,82.53094911
3.176,0.17962074,82.53094911
3.177,0.177386121,82.53094911
3.178,0.175470734,82.53094911
3.179,0.173874578,82.53094911
3.18,0.172278422,82.53094911
3.181,0.170682266,82.53094911
3.182,0.168447647,82.53094911
3.183,0.166213029,82.53094911
3.184,0.163020717,82.53094911
3.185,0.159509173,82.53094911
3.186,0.155678399,82.53094911
3.187,0.151209162,82.53094911
3.188,0.147059156,82.53094911
3.189,0.143547613,82.53094911
3.19,0.140355301,82.53094911
3.191,0.138120682,82.53094911
3.192,0.136843757,82.53094911
3.193,0.136524526,82.53094911
3.194,0.137801451,82.53094911
3.195,0.140355301,82.53094911
3.196,0.143866844,82.53094911
3.197,0.14801685,82.53094911
3.198,0.152805318,82.53094911
3.199,0.157274555,82.53094911
3.2,0.161424561,82.53094911
3.201,0.164297641,82.53094911
3.202,0.165574566,82.53094911
3.203,0.165255335,82.53094911
3.204,0.163339948,82.53094911
3.205,0.159828404,82.53094911
3.206,0.154720705,82.53094911
3.207,0.148655312,82.53094911
3.208,0.141951457,82.53094911
3.209,0.13492837,82.53094911
3.21,0.128224514,82.53094911
3.211,0.12183989,82.53094911
3.212,0.116093728,82.53094911
3.213,0.111624491,82.53094911
3.214,0.108751411,82.53094911
3.215,0.108112948,82.53094911
3.216,0.109709104,82.53094911
3.217,0.114178341,82.53094911
3.218,0.121520659,82.53094911
3.219,0.131736058,82.53094911
3.22,0.144505306,82.53094911
3.221,0.159828404,82.53094911
3.222,0.178024584,82.53094911
3.223,0.198455381,82.53094911
3.224,0.221440028,82.53094911
3.225,0.247297757,82.53094911
3.226,0.276347797,82.53094911
3.227,0.308909381,82.53094911
3.228,0.34562097,82.53094911
3.229,0.386482565,82.53094911
3.23,0.431813397,82.53094911
3.231,0.480975004,82.53094911
3.232,0.534605848,82.53094911
3.233,0.592705928,82.53094911
3.234,0.654317552,82.53094911
3.235,0.718483026,82.53094911
3.236,0.784563887,82.53094911
3.237,0.850006285,82.53094911
3.238,0.913214065,82.53094911
3.239,0.972591071,82.53094911
3.24,1.026541145,82.53094911
3.241,1.073148902,82.53094911
3.242,1.111775879,82.53094911
3.243,1.141145151,82.53094911
3.244,1.160299023,82.53094911
3.245,1.168599035,82.53094911
3.246,1.165725954,82.53094911
3.247,1.151360549,82.53094911
3.248,1.125502821,82.53094911
3.249,1.089110463,82.53094911
3.25,1.042821937,82.53094911
3.251,0.986956475,82.53094911
3.252,0.923748695,82.53094911
3.253,0.854475522,82.53094911
3.254,0.780733112,82.53094911
3.255,0.703479159,80.64516129
3.256,0.624629049,80.64516129
3.257,0.54577894,80.64516129
3.258,0.467886524,80.64516129
3.259,0.391909496,80.64516129
3.26,0.318486317,80.64516129
3.261,0.247936219,80.64516129
3.262,0.180578433,80.64516129
3.263,0.11641296,80.64516129
3.264,0.055759029,80.64516129
3.265,-0.000744895,80.64516129
3.266,-0.053098814,80.64516129
3.267,-0.100345033,80.64516129
3.268,-0.142164322,80.64516129
3.269,-0.177918218,80.64516129
3.27,-0.206968258,80.64516129
3.271,-0.229633674,80.64516129
3.272,-0.245595235,80.64516129
3.273,-0.25485294,80.64516129
3.274,-0.258364483,80.64516129
3.275,-0.255491403,80.64516129
3.276,-0.247191391,80.64516129
3.277,-0.233464449,80.64516129
3.278,-0.215587501,80.64516129
3.279,-0.193560547,80.64516129
3.28,-0.168979744,80.64516129
3.281,-0.142164322,80.64516129
3.282,-0.114391207,80.64516129
3.283,-0.086937323,80.64516129
3.284,-0.059802669,80.64516129
3.285,-0.034264173,80.64516129
3.286,-0.010641063,80.64516129
3.287,0.010428197,80.64516129
3.288,0.02958207,80.64516129
3.289,0.046182093,80.64516129
3.29,0.060547497,80.64516129
3.291,0.072678284,80.64516129
3.292,0.082574451,80.64516129
3.293,0.090555231,80.64516129
3.294,0.096620624,80.64516129
3.295,0.101409093,80.64516129
3.296,0.105239867,80.64516129
3.297,0.108112948,80.64516129
3.298,0.110028335,80.64516129
3.299,0.11130526,80.64516129
3.3,0.112262954,80.64516129
3.301,0.112262954,80.64516129
3.302,0.111624491,80.64516129
3.303,0.110666798,80.64516129
3.304,0.108751411,80.64516129
3.305,0.106836023,80.64516129
3.306,0.104282174,80.64516129
3.307,0.101728324,80.64516129
3.308,0.099812937,80.64516129
3.309,0.097897549,80.64516129
3.31,0.096939856,80.64516129
3.311,0.096939856,80.64516129
3.312,0.097897549,80.64516129
3.313,0.099812937,80.64516129
3.314,0.103005249,80.64516129
3.315,0.107155254,80.64516129
3.316,0.112262954,80.64516129
3.317,0.118009116,80.64516129
3.318,0.123755277,80.64516129
3.319,0.129501439,80.64516129
3.32,0.134289907,80.64516129
3.321,0.138439913,80.64516129
3.322,0.141632225,80.64516129
3.323,0.143547613,80.64516129
3.324,0.144505306,80.64516129
3.325,0.144186075,80.64516129
3.326,0.14290915,80.64516129
3.327,0.140993763,80.64516129
3.328,0.138759144,80.64516129
3.329,0.136524526,80.64516129
3.33,0.134289907,80.64516129
3.331,0.13237452,80.64516129
3.332,0.131416827,80.64516129
3.333,0.131097595,80.64516129
3.334,0.132055289,80.64516129
3.335,0.133651445,80.64516129
3.336,0.136205295,80.64516129
3.337,0.139397607,80.64516129
3.338,0.143228381,80.64516129
3.339,0.147059156,80.64516129
3.34,0.150570699,80.64516129
3.341,0.154082243,80.64516129
3.342,0.156955324,80.64516129
3.343,0.158870711,80.64516129
3.344,0.160147636,80.64516129
3.345,0.160786098,80.64516129
3.346,0.160466867,80.64516129
3.347,0.159509173,80.64516129
3.348,0.158232248,80.64516129
3.349,0.156636092,80.64516129
3.35,0.155359167,80.64516129
3.351,0.154082243,80.64516129
3.352,0.153763011,80.64516129
3.353,0.153763011,80.64516129
3.354,0.155039936,80.64516129
3.355,0.156636092,80.64516129
3.356,0.158870711,80.64516129
3.357,0.161424561,80.64516129
3.358,0.16397841,80.64516129
3.359,0.16653226,80.64516129
3.36,0.168447647,80.64516129
3.361,0.170043803,80.64516129
3.362,0.171001497,80.64516129
3.363,0.171320728,80.64516129
3.364,0.171320728,80.64516129
3.365,0.171001497,80.64516129
3.366,0.170043803,80.64516129
3.367,0.16908611,80.64516129
3.368,0.168128416,80.64516129
3.369,0.167489954,80.64516129
3.37,0.167170722,80.64516129
3.371,0.167809185,80.64516129
3.372,0.16908611,80.64516129
3.373,0.171320728,80.64516129
3.374,0.17451304,80.64516129
3.375,0.178663046,80.64516129
3.376,0.183132283,80.64516129
3.377,0.187920751,80.64516129
3.378,0.193028451,80.64516129
3.379,0.197816919,80.64516129
3.38,0.202286156,80.64516129
3.381,0.20611693,80.64516129
3.382,0.209309242,80.64516129
3.383,0.211543861,80.64516129
3.384,0.212820786,80.64516129
3.385,0.212820786,80.64516129
3.386,0.212182323,80.64516129
3.387,0.210905398,80.64516129
3.388,0.209628474,80.64516129
3.389,0.208351549,80.64516129
3.39,0.207074624,80.64516129
3.391,0.20611693,80.64516129
3.392,0.205797699,80.64516129
3.393,0.206436161,80.64516129
3.394,0.207713086,80.64516129
3.395,0.210266936,80.64516129
3.396,0.213140017,80.64516129
3.397,0.21665156,80.64516129
3.398,0.220163104,80.64516129
3.399,0.223674647,80.64516129
3.4,0.226866959,80.64516129
3.401,0.22974004,80.64516129
3.402,0.231655427,80.64516129
3.403,0.233251583,80.64516129
3.404,0.234528508,80.64516129
3.405,0.235166971,80.64516129
3.406,0.235805433,80.64516129
3.407,0.236124664,80.64516129
3.408,0.237082358,80.64516129
3.409,0.238040051,80.64516129
3.41,0.239636207,80.64516129
3.411,0.242190057,80.64516129
3.412,0.245701601,80.64516129
3.413,0.249851606,80.64516129
3.414,0.255278537,80.64516129
3.415,0.261024699,80.64516129
3.416,0.267409323,80.64516129
3.417,0.274113178,80.64516129
3.418,0.280497803,80.64516129
3.419,0.285924733,80.64516129
3.42,0.291032433,80.64516129
3.421,0.295182438,80.64516129
3.422,0.298374751,80.64516129
3.423,0.3009286,80.64516129
3.424,0.302524756,80.64516129
3.425,0.302843987,80.64516129
3.426,0.302524756,80.64516129
3.427,0.301886294,80.64516129
3.428,0.300609369,80.64516129
3.429,0.299651675,80.64516129
3.43,0.298693982,80.64516129
3.431,0.298374751,80.64516129
3.432,0.299013213,80.64516129
3.433,0.300609369,80.64516129
3.434,0.30348245,80.64516129
3.435,0.307313224,80.64516129
3.436,0.312420924,80.64516129
3.437,0.317528623,80.64516129
3.438,0.322636323,80.64516129
3.439,0.327424791,80.64516129
3.44,0.331894028,80.64516129
3.441,0.335724802,80.64516129
3.442,0.338597883,80.64516129
3.443,0.340513271,80.64516129
3.444,0.341151733,80.64516129
3.445,0.340832502,80.64516129
3.446,0.339555577,80.64516129
3.447,0.33764019,80.64516129
3.448,0.33508634,80.64516129
3.449,0.33253249,80.64516129
3.45,0.329659409,80.64516129
3.451,0.327424791,80.64516129
3.452,0.325190172,80.64516129
3.453,0.323913247,80.64516129
3.454,0.322955554,80.64516129
3.455,0.322636323,80.64516129
3.456,0.322955554,80.64516129
3.457,0.323274785,80.64516129
3.458,0.323594016,80.64516129
3.459,0.323594016,80.64516129
3.46,0.323274785,80.64516129
3.461,0.322317091,80.64516129
3.462,0.320720935,80.64516129
3.463,0.318167086,80.64516129
3.464,0.314655542,80.64516129
3.465,0.310505537,80.64516129
3.466,0.305397837,80.64516129
3.467,0.299970907,80.64516129
3.468,0.294224745,80.64516129
3.469,0.288478583,80.64516129
3.47,0.283370884,80.64516129
3.471,0.278901647,80.64516129
3.472,0.275390103,80.64516129
3.473,0.272836254,80.64516129
3.474,0.270920866,80.64516129
3.475,0.269963173,80.64516129
3.476,0.269963173,80.64516129
3.477,0.270282404,80.64516129
3.478,0.271240097,80.64516129
3.479,0.272197791,80.64516129
3.48,0.272836254,80.64516129
3.481,0.273155485,80.64516129
3.482,0.272517022,80.64516129
3.483,0.270920866,80.64516129
3.484,0.268367017,80.64516129
3.485,0.265493936,80.64516129
3.486,0.261982392,80.64516129
3.487,0.258151618,80.64516129
3.488,0.254640074,80.64516129
3.489,0.251128531,80.64516129
3.49,0.248574681,80.64516129
3.491,0.246340063,80.64516129
3.492,0.244743907,80.64516129
3.493,0.244105444,80.64516129
3.494,0.243466982,80.64516129
3.495,0.243466982,80.64516129
3.496,0.244105444,80.64516129
3.497,0.244743907,80.64516129
3.498,0.245382369,80.64516129
3.499,0.245701601,80.64516129
3.5,0.246020832,80.64516129
3.501,0.245382369,80.64516129
3.502,0.244105444,80.64516129
3.503,0.241870826,80.64516129
3.504,0.238678514,80.64516129
3.505,0.234528508,80.64516129
3.506,0.22974004,80.64516129
3.507,0.224313109,80.64516129
3.508,0.218886179,80.64516129
3.509,0.213778479,80.64516129
3.51,0.209309242,80.64516129
3.511,0.205478468,80.64516129
3.512,0.202924618,80.64516129
3.513,0.201647693,80.64516129
3.514,0.201328462,80.64516129
3.515,0.202286156,80.64516129
3.516,0.204201543,80.64516129
3.517,0.206436161,80.64516129
3.518,0.209309242,80.64516129
3.519,0.211863092,80.64516129
3.52,0.213778479,80.64516129
3.521,0.215374635,80.64516129
3.522,0.216013098,80.64516129
3.523,0.215693867,80.64516129
3.524,0.214736173,80.64516129
3.525,0.212501554,80.64516129
3.526,0.209947705,80.64516129
3.527,0.206755393,80.64516129
3.528,0.202924618,80.64516129
3.529,0.199413075,80.64516129
3.53,0.196220763,80.64516129
3.531,0.193028451,80.64516129
3.532,0.190793832,80.64516129
3.533,0.189197676,80.64516129
3.534,0.188239982,80.64516129
3.535,0.187920751,80.64516129
3.536,0.188559214,80.64516129
3.537,0.189516907,80.64516129
3.538,0.190793832,80.64516129
3.539,0.191751526,80.64516129
3.54,0.192389988,80.64516129
3.541,0.192709219,80.64516129
3.542,0.192389988,80.64516129
3.543,0.191432294,80.64516129
3.544,0.189836138,80.64516129
3.545,0.187920751,80.64516129
3.546,0.185366901,80.64516129
3.547,0.183132283,80.64516129
3.548,0.180897664,80.64516129
3.549,0.179301508,80.64516129
3.55,0.178024584,80.64516129
3.551,0.177705352,80.64516129
3.552,0.178024584,80.64516129
3.553,0.17962074,80.64516129
3.554,0.181855358,80.64516129
3.555,0.18504767,80.64516129
3.556,0.188878445,80.64516129
3.557,0.193347682,80.64516129
3.558,0.197497687,80.64516129
3.559,0.201328462,80.64516129
3.56,0.204201543,80.64516129
3.561,0.206755393,80.64516129
3.562,0.208032317,80.64516129
3.563,0.20867078,80.64516129
3.564,0.208032317,80.64516129
3.565,0.206436161,80.64516129
3.566,0.204201543,80.64516129
3.567,0.201966924,80.64516129
3.568,0.199093844,80.64516129
3.569,0.196859225,80.64516129
3.57,0.195263069,80.64516129
3.571,0.194624607,80.64516129
3.572,0.194943838,80.64516129
3.573,0.196220763,80.64516129
3.574,0.198455381,80.64516129
3.575,0.201647693,80.64516129
3.576,0.205159237,80.64516129
3.577,0.209309242,80.64516129
3.578,0.213459248,80.64516129
3.579,0.217290023,80.64516129
3.58,0.221120797,80.64516129
3.581,0.224313109,80.64516129
3.582,0.226866959,80.64516129
3.583,0.228463115,80.64516129
3.584,0.229420809,80.64516129
3.585,0.229420809,80.64516129
3.586,0.228463115,80.64516129
3.587,0.226866959,80.64516129
3.588,0.224951572,80.64516129
3.589,0.223355416,80.64516129
3.59,0.22175926,80.64516129
3.591,0.221120797,80.64516129
3.592,0.221440028,80.64516129
3.593,0.222716953,80.64516129
3.594,0.225270803,80.64516129
3.595,0.228782346,80.64516129
3.596,0.232613121,80.64516129
3.597,0.236763127,80.64516129
3.598,0.240913132,80.64516129
3.599,0.244424676,80.64516129
3.6,0.247616988,80.64516129
3.601,0.250170837,80.64516129
3.602,0.252086225,80.64516129
3.603,0.253043918,80.64516129
3.604,0.25336315,80.64516129
3.605,0.253043918,80.64516129
3.606,0.252086225,80.64516129
3.607,0.2508093,80.64516129
3.608,0.249532375,80.64516129
3.609,0.247936219,80.64516129
3.61,0.246659294,80.64516129
3.611,0.246020832,80.64516129
3.612,0.246340063,80.64516129
3.613,0.247297757,80.64516129
3.614,0.249213144,80.64516129
3.615,0.251766994,80.64516129
3.616,0.254959306,80.64516129
3.617,0.258470849,80.64516129
3.618,0.261982392,80.64516129
3.619,0.265174704,80.64516129
3.62,0.268047785,80.64516129
3.621,0.270282404,80.64516129
3.622,0.27187856,80.64516129
3.623,0.272517022,80.64516129
3.624,0.272517022,80.64516129
3.625,0.27187856,80.64516129
3.626,0.270282404,80.64516129
3.627,0.268686248,80.64516129
3.628,0.266451629,80.64516129
3.629,0.264855473,80.64516129
3.63,0.263259317,80.64516129
3.631,0.262301624,80.64516129
3.632,0.261663161,80.64516129
3.633,0.261982392,80.64516129
3.634,0.262620855,80.64516129
3.635,0.26389778,80.64516129
3.636,0.265493936,80.64516129
3.637,0.266770861,80.64516129
3.638,0.268367017,80.64516129
3.639,0.269005479,80.64516129
3.64,0.26932471,80.64516129
3.641,0.268686248,80.64516129
3.642,0.267090092,80.64516129
3.643,0.264217011,80.64516129
3.644,0.260705467,80.64516129
3.645,0.256555462,80.64516129
3.646,0.251766994,80.64516129
3.647,0.247297757,80.64516129
3.648,0.24282852,80.64516129
3.649,0.238678514,80.64516129
3.65,0.235486202,80.64516129
3.651,0.232932352,80.64516129
3.652,0.231336196,80.64516129
3.653,0.231016965,80.64516129
3.654,0.231655427,80.64516129
3.655,0.233251583,80.64516129
3.656,0.235805433,80.64516129
3.657,0.238678514,80.64516129
3.658,0.241870826,80.64516129
3.659,0.244743907,80.64516129
3.66,0.247297757,80.64516129
3.661,0.249213144,80.64516129
3.662,0.250490069,80.64516129
3.663,0.2508093,80.64516129
3.664,0.250170837,80.64516129
3.665,0.248574681,80.64516129
3.666,0.246020832,80.64516129
3.667,0.243466982,80.64516129
3.668,0.240913132,80.64516129
3.669,0.238678514,80.64516129
3.67,0.236763127,80.64516129
3.671,0.235486202,80.64516129
3.672,0.235166971,80.64516129
3.673,0.235486202,80.64516129
3.674,0.236443895,80.64516129
3.675,0.238359283,80.64516129
3.676,0.240913132,80.64516129
3.677,0.243786213,80.64516129
3.678,0.246659294,80.64516129
3.679,0.249532375,80.64516129
3.68,0.251766994,80.64516129
3.681,0.253682381,80.64516129
3.682,0.254959306,80.64516129
3.683,0.255278537,80.64516129
3.684,0.254959306,80.64516129
3.685,0.254320843,80.64516129
3.686,0.25336315,80.64516129
3.687,0.251766994,80.64516129
3.688,0.250490069,80.64516129
3.689,0.248893913,80.64516129
3.69,0.247616988,80.64516129
3.691,0.246659294,80.64516129
3.692,0.246340063,80.64516129
3.693,0.246340063,80.64516129
3.694,0.246978525,80.64516129
3.695,0.24825545,80.64516129
3.696,0.249851606,80.64516129
3.697,0.251766994,80.64516129
3.698,0.253043918,80.64516129
3.699,0.254001612,80.64516129
3.7,0.254320843,80.64516129
3.701,0.253682381,80.64516129
3.702,0.252405456,80.64516129
3.703,0.250490069,80.64516129
3.704,0.247936219,80.64516129
3.705,0.244424676,80.64516129
3.706,0.241232364,80.64516129
3.707,0.23772082,80.64516129
3.708,0.234528508,80.64516129
3.709,0.231974658,80.64516129
3.71,0.230378502,80.64516129
3.711,0.229420809,80.64516129
3.712,0.22974004,80.64516129
3.713,0.231336196,80.64516129
3.714,0.233890046,80.64516129
3.715,0.237401589,80.64516129
3.716,0.241551595,80.64516129
3.717,0.246340063,80.64516129
3.718,0.2508093,80.64516129
3.719,0.254959306,80.64516129
3.72,0.258151618,80.64516129
3.721,0.260386236,80.64516129
3.722,0.261663161,80.64516129
3.723,0.261663161,80.64516129
3.724,0.261024699,80.64516129
3.725,0.259747774,80.64516129
3.726,0.257832387,80.64516129
3.727,0.255597768,80.64516129
3.728,0.25336315,80.64516129
3.729,0.251766994,80.64516129
3.73,0.250490069,80.64516129
3.731,0.249851606,80.64516129
3.732,0.250170837,80.64516129
3.733,0.251766994,80.64516129
3.734,0.254001612,80.64516129
3.735,0.256555462,80.64516129
3.736,0.259747774,80.64516129
3.737,0.263259317,80.64516129
3.738,0.266451629,80.64516129
3.739,0.269963173,80.64516129
3.74,0.272836254,80.64516129
3.741,0.275070872,80.64516129
3.742,0.276347797,80.64516129
3.743,0.276667028,80.64516129
3.744,0.275709334,80.64516129
3.745,0.27443241,80.64516129
3.746,0.272197791,80.64516129
3.747,0.269643941,80.64516129
3.748,0.267090092,80.64516129
3.749,0.264536242,80.64516129
3.75,0.262620855,80.64516129
3.751,0.261663161,80.64516129
3.752,0.26134393,80.64516129
3.753,0.261982392,80.64516129
3.754,0.263578548,80.64516129
3.755,0.266132398,80.64516129
3.756,0.26932471,80.64516129
3.757,0.273155485,80.64516129
3.758,0.277305491,80.64516129
3.759,0.280817034,80.64516129
3.76,0.284009346,80.64516129
3.761,0.286243964,80.64516129
3.762,0.287520889,80.64516129
3.763,0.287840121,80.64516129
3.764,0.287520889,80.64516129
3.765,0.286243964,80.64516129
3.766,0.284647808,80.64516129
3.767,0.283051652,80.64516129
3.768,0.281136265,80.64516129
3.769,0.27985934,80.64516129
3.77,0.278901647,80.64516129
3.771,0.278901647,80.64516129
3.772,0.279220878,80.64516129
3.773,0.280817034,80.64516129
3.774,0.282732421,80.64516129
3.775,0.285605502,80.64516129
3.776,0.288478583,80.64516129
3.777,0.291990126,80.64516129
3.778,0.295182438,80.64516129
3.779,0.298374751,80.64516129
3.78,0.301247831,80.64516129
3.781,0.30348245,80.64516129
3.782,0.305078606,80.64516129
3.783,0.3060363,80.64516129
3.784,0.306674762,80.64516129
3.785,0.306674762,80.64516129
3.786,0.306674762,80.64516129
3.787,0.306355531,80.64516129
3.788,0.306674762,80.64516129
3.789,0.307313224,80.64516129
3.79,0.308590149,80.64516129
3.791,0.311143999,80.64516129
3.792,0.314655542,80.64516129
3.793,0.319124779,80.64516129
3.794,0.324232479,80.64516129
3.795,0.330617103,80.64516129
3.796,0.337320958,80.64516129
3.797,0.344344045,80.64516129
3.798,0.351047901,80.64516129
3.799,0.357113294,80.64516129
3.8,0.362540224,80.64516129
3.801,0.367009461,80.64516129
3.802,0.369882542,80.64516129
3.803,0.371797929,80.64516129
3.804,0.372117161,80.64516129
3.805,0.371797929,80.64516129
3.806,0.370201773,80.64516129
3.807,0.368605617,80.64516129
3.808,0.36669023,80.64516129
3.809,0.364774843,80.64516129
3.81,0.363817149,80.64516129
3.811,0.363497918,80.64516129
3.812,0.36413638,80.64516129
3.813,0.366370999,80.64516129
3.814,0.369563311,80.64516129
3.815,0.373394085,80.64516129
3.816,0.377863322,80.64516129
3.817,0.382332559,80.64516129
3.818,0.386801796,80.64516129
3.819,0.390632571,80.64516129
3.82,0.394144114,80.64516129
3.821,0.397017195,80.64516129
3.822,0.398932582,80.64516129
3.823,0.399571045,80.64516129
3.824,0.399251814,80.64516129
3.825,0.397655658,80.64516129
3.826,0.394782577,80.64516129
3.827,0.391271033,80.64516129
3.828,0.387121028,80.64516129
3.829,0.382651791,80.64516129
3.83,0.377863322,80.64516129
3.831,0.373394085,80.64516129
3.832,0.36924408,80.64516129
3.833,0.365732536,80.64516129
3.834,0.362540224,80.64516129
3.835,0.359347912,80.64516129
3.836,0.356474831,80.64516129
3.837,0.35360175,80.64516129
3.838,0.350409438,80.64516129
3.839,0.347217126,80.64516129
3.84,0.34306712,80.64516129
3.841,0.338597883,80.64516129
3.842,0.333170953,80.64516129
3.843,0.326786328,80.64516129
3.844,0.319444011,80.64516129
3.845,0.311782461,80.64516129
3.846,0.303801681,80.64516129
3.847,0.295820901,80.64516129
3.848,0.288159352,80.64516129
3.849,0.281136265,80.64516129
3.85,0.275390103,80.64516129
3.851,0.270601635,80.64516129
3.852,0.267090092,80.64516129
3.853,0.264855473,80.64516129
3.854,0.26389778,80.64516129
3.855,0.26389778,80.64516129
3.856,0.264536242,80.64516129
3.857,0.265813167,80.64516129
3.858,0.266770861,80.64516129
3.859,0.267728554,80.64516129
3.86,0.268686248,80.64516129
3.861,0.269005479,80.64516129
3.862,0.268686248,80.64516129
3.863,0.267409323,80.64516129
3.864,0.265493936,80.64516129
3.865,0.262940086,80.64516129
3.866,0.259428543,80.64516129
3.867,0.255278537,80.64516129
3.868,0.251447762,80.64516129
3.869,0.247936219,80.64516129
3.87,0.244743907,80.64516129
3.871,0.241870826,80.64516129
3.872,0.239955439,80.64516129
3.873,0.238678514,80.64516129
3.874,0.238040051,80.64516129
3.875,0.237401589,80.64516129
3.876,0.237082358,80.64516129
3.877,0.236443895,80.64516129
3.878,0.235486202,80.64516129
3.879,0.234528508,80.64516129
3.88,0.233570814,80.64516129
3.881,0.232613121,80.64516129
3.882,0.231655427,80.64516129
3.883,0.231016965,80.64516129
3.884,0.231016965,80.64516129
3.885,0.231655427,80.64516129
3.886,0.233890046,80.64516129
3.887,0.23772082,80.64516129
3.888,0.243786213,80.64516129
3.889,0.252724687,80.64516129
3.89,0.264855473,80.64516129
3.891,0.280497803,80.64516129
3.892,0.299651675,80.64516129
3.893,0.322636323,80.64516129
3.894,0.349451744,80.64516129
3.895,0.380097941,80.64516129
3.896,0.414255681,80.64516129
3.897,0.451924964,80.64516129
3.898,0.49310579,80.64516129
3.899,0.537159697,80.64516129
3.9,0.583767454,80.64516129
3.901,0.632929061,80.64516129
3.902,0.684006055,80.64516129
3.903,0.736359974,80.64516129
3.904,0.789352355,80.64516129
3.905,0.842344736,80.64516129
3.906,0.893740961,80.64516129
3.907,0.942583337,80.64516129
3.908,0.987594938,80.64516129
3.909,1.027498839,80.64516129
3.91,1.061337348,80.64516129
3.911,1.088472001,80.64516129
3.912,1.107945105,80.64516129
3.913,1.119118197,80.64516129
3.914,1.121672047,80.64516129
3.915,1.11464896,80.64516129
3.916,1.097091243,80.64516129
3.917,1.069637359,80.64516129
3.918,1.031648845,80.64516129
3.919,0.983764163,80.64516129
3.92,0.926941007,80.64516129
3.921,0.861498609,80.64516129
3.922,0.789671586,80.64516129
3.923,0.712736864,89.68609865
3.924,0.632290598,89.68609865
3.925,0.550567408,89.68609865
3.926,0.46948268,89.68609865
3.927,0.390951802,89.68609865
3.928,0.315613236,89.68609865
3.929,0.244743907,89.68609865
3.93,0.178982277,89.68609865
3.931,0.118647578,89.68609865
3.932,0.064697503,89.68609865
3.933,0.01649359,89.68609865
3.934,-0.02564493,89.68609865
3.935,-0.062356519,89.68609865
3.936,-0.093960409,89.68609865
3.937,-0.120137369,89.68609865
3.938,-0.14152586,89.68609865
3.939,-0.158445114,89.68609865
3.94,-0.170895131,89.68609865
3.941,-0.179833605,89.68609865
3.942,-0.184941305,89.68609865
3.943,-0.186856692,89.68609865
3.944,-0.185579767,89.68609865
3.945,-0.180791299,89.68609865
3.946,-0.17312975,89.68609865
3.947,-0.161956657,89.68609865
3.948,-0.147591253,89.68609865
3.949,-0.130352767,89.68609865
3.95,-0.110241201,89.68609865
3.951,-0.087895016,89.68609865
3.952,-0.063633444,89.68609865
3.953,-0.037775716,89.68609865
3.954,-0.011279525,89.68609865
3.955,0.014897434,89.68609865
3.956,0.0401167,89.68609865
3.957,0.06373981,89.68609865
3.958,0.08480907,89.68609865
3.959,0.10332448,89.68609865
3.96,0.118328347,89.68609865
3.961,0.129820671,89.68609865
3.962,0.138120682,89.68609865
3.963,0.143228381,89.68609865
3.964,0.145463,89.68609865
3.965,0.145143769,89.68609865
3.966,0.143228381,89.68609865
3.967,0.139716838,89.68609865
3.968,0.135886064,89.68609865
3.969,0.132055289,89.68609865
3.97,0.128543746,89.68609865
3.971,0.125989896,89.68609865
3.972,0.12439374,89.68609865
3.973,0.123755277,89.68609865
3.974,0.124074509,89.68609865
3.975,0.125351434,89.68609865
3.976,0.127266821,89.68609865
3.977,0.129820671,89.68609865
3.978,0.13237452,89.68609865
3.979,0.134609139,89.68609865
3.98,0.136205295,89.68609865
3.981,0.137162988,89.68609865
3.982,0.137162988,89.68609865
3.983,0.136205295,89.68609865
3.984,0.134289907,89.68609865
3.985,0.131097595,89.68609865
3.986,0.127905283,89.68609865
3.987,0.12439374,89.68609865
3.988,0.120882197,89.68609865
3.989,0.117689884,89.68609865
3.99,0.115455266,89.68609865
3.991,0.114178341,89.68609865
3.992,0.113539879,89.68609865
3.993,0.114178341,89.68609865
3.994,0.115774497,89.68609865
3.995,0.117689884,89.68609865
3.996,0.120243734,89.68609865
3.997,0.123116815,89.68609865
3.998,0.125989896,89.68609865
3.999,0.128224514,89.68609865
4,0.130139902,89.68609865
4.001,0.131416827,89.68609865
4.002,0.131416827,89.68609865
4.003,0.130459133,89.68609865
4.004,0.128543746,89.68609865
4.005,0.125670665,89.68609865
4.006,0.122159121,89.68609865
4.007,0.118647578,89.68609865
4.008,0.115136035,89.68609865
4.009,0.111943723,89.68609865
4.01,0.109709104,89.68609865
4.011,0.107793717,89.68609865
4.012,0.107155254,89.68609865
4.013,0.107474486,89.68609865
4.014,0.108432179,89.68609865
4.015,0.110028335,89.68609865
4.016,0.111624491,89.68609865
4.017,0.113539879,89.68609865
4.018,0.114816804,89.68609865
4.019,0.116093728,89.68609865
4.02,0.11641296,89.68609865
4.021,0.116093728,89.68609865
4.022,0.115136035,89.68609865
4.023,0.112901416,89.68609865
4.024,0.110347567,89.68609865
4.025,0.106836023,89.68609865
4.026,0.10332448,89.68609865
4.027,0.099812937,89.68609865
4.028,0.096620624,89.68609865
4.029,0.093747544,89.68609865
4.03,0.091512925,89.68609865
4.031,0.090236,89.68609865
4.032,0.089916769,89.68609865
4.033,0.090236,89.68609865
4.034,0.091832156,89.68609865
4.035,0.094066775,89.68609865
4.036,0.096939856,89.68609865
4.037,0.099812937,89.68609865
4.038,0.102686017,89.68609865
4.039,0.105239867,89.68609865
4.04,0.106836023,89.68609865
4.041,0.107474486,89.68609865
4.042,0.106836023,89.68609865
4.043,0.105239867,89.68609865
4.044,0.102366786,89.68609865
4.045,0.098536012,89.68609865
4.046,0.094386006,89.68609865
4.047,0.089916769,89.68609865
4.048,0.085766763,89.68609865
4.049,0.081935989,89.68609865
4.05,0.078743677,89.68609865
4.051,0.076189827,89.68609865
4.052,0.07427444,89.68609865
4.053,0.073635977,89.68609865
4.054,0.073635977,89.68609865
4.055,0.074593671,89.68609865
4.056,0.076189827,89.68609865
4.057,0.078105214,89.68609865
4.058,0.080020601,89.68609865
4.059,0.081935989,89.68609865
4.06,0.083212914,89.68609865
4.061,0.083851376,89.68609865
4.062,0.083851376,89.68609865
4.063,0.083532145,89.68609865
4.064,0.082574451,89.68609865
4.065,0.081297526,89.68609865
4.066,0.07970137,89.68609865
4.067,0.078105214,89.68609865
4.068,0.076509058,89.68609865
4.069,0.075551364,89.68609865
4.07,0.074912902,89.68609865
4.071,0.075232133,89.68609865
4.072,0.075870596,89.68609865
4.073,0.077147521,89.68609865
4.074,0.079382139,89.68609865
4.075,0.081935989,89.68609865
4.076,0.08480907,89.68609865
4.077,0.087682151,89.68609865
4.078,0.090555231,89.68609865
4.079,0.09278985,89.68609865
4.08,0.094705237,89.68609865
4.081,0.095662931,89.68609865
4.082,0.095982162,89.68609865
4.083,0.095024468,89.68609865
4.084,0.093428312,89.68609865
4.085,0.091193694,89.68609865
4.086,0.089278307,89.68609865
4.087,0.087362919,89.68609865
4.088,0.086405226,89.68609865
4.089,0.086405226,89.68609865
4.09,0.087043688,89.68609865
4.091,0.088959075,89.68609865
4.092,0.091832156,89.68609865
4.093,0.095024468,89.68609865
4.094,0.098855243,89.68609865
4.095,0.102686017,89.68609865
4.096,0.106516792,89.68609865
4.097,0.110028335,89.68609865
4.098,0.112901416,89.68609865
4.099,0.114816804,89.68609865
4.1,0.115774497,89.68609865
4.101,0.115774497,89.68609865
4.102,0.114178341,89.68609865
4.103,0.11130526,89.68609865
4.104,0.107474486,89.68609865
4.105,0.103005249,89.68609865
4.106,0.097897549,89.68609865
4.107,0.092470619,89.68609865
4.108,0.087682151,89.68609865
4.109,0.083532145,89.68609865
4.11,0.080020601,89.68609865
4.111,0.077785983,89.68609865
4.112,0.076509058,89.68609865
4.113,0.076189827,89.68609865
4.114,0.076509058,89.68609865
4.115,0.077785983,89.68609865
4.116,0.079382139,89.68609865
4.117,0.080659064,89.68609865
4.118,0.081297526,89.68609865
4.119,0.081297526,89.68609865
4.12,0.080339833,89.68609865
4.121,0.078105214,89.68609865
4.122,0.074593671,89.68609865
4.123,0.069805203,89.68609865
4.124,0.064059041,89.68609865
4.125,0.057035954,89.68609865
4.126,0.049693636,89.68609865
4.127,0.042032087,89.68609865
4.128,0.034370538,89.68609865
4.129,0.027347451,89.68609865
4.13,0.020643596,89.68609865
4.131,0.015216665,89.68609865
4.132,0.010428197,89.68609865
4.133,0.006916654,89.68609865
4.134,0.004362804,89.68609865
4.135,0.002447417,89.68609865
4.136,0.000851261,89.68609865
4.137,-0.000744895,89.68609865
4.138,-0.002660283,89.68609865
4.139,-0.005214132,89.68609865
4.14,-0.008406444,89.68609865
4.141,-0.012237219,89.68609865
4.142,-0.017344918,89.68609865
4.143,-0.02309108,89.68609865
4.144,-0.029475704,89.68609865
4.145,-0.036818022,89.68609865
4.146,-0.044798803,89.68609865
4.147,-0.052779583,89.68609865
4.148,-0.060441132,89.68609865
4.149,-0.067464219,89.68609865
4.15,-0.073529612,89.68609865
4.151,-0.078956542,89.68609865
4.152,-0.082787317,89.68609865
4.153,-0.085979629,89.68609865
4.154,-0.088214247,89.68609865
4.155,-0.090129635,89.68609865
4.156,-0.091406559,89.68609865
4.157,-0.092683484,89.68609865
4.158,-0.093960409,89.68609865
4.159,-0.096195028,89.68609865
4.16,-0.098748877,89.68609865
4.161,-0.102260421,89.68609865
4.162,-0.107048889,89.68609865
4.163,-0.112475819,89.68609865
4.164,-0.118860444,89.68609865
4.165,-0.125564299,89.68609865
4.166,-0.132906617,89.68609865
4.167,-0.140248935,89.68609865
4.168,-0.147272022,89.68609865
4.169,-0.153975877,89.68609865
4.17,-0.159402808,89.68609865
4.171,-0.164191276,89.68609865
4.172,-0.16802205,89.68609865
4.173,-0.1705759,89.68609865
4.174,-0.172491287,89.68609865
4.175,-0.17312975,89.68609865
4.176,-0.173768212,89.68609865
4.177,-0.174087443,89.68609865
4.178,-0.174406675,89.68609865
4.179,-0.1756836,89.68609865
4.18,-0.177598987,89.68609865
4.181,-0.180472068,89.68609865
4.182,-0.184302842,89.68609865
4.183,-0.18909131,89.68609865
4.184,-0.194837472,89.68609865
4.185,-0.200902865,89.68609865
4.186,-0.207606721,89.68609865
4.187,-0.213991345,89.68609865
4.188,-0.220375969,89.68609865
4.189,-0.226760593,89.68609865
4.19,-0.232506755,89.68609865
4.191,-0.237295223,89.68609865
4.192,-0.241445229,89.68609865
4.193,-0.243999079,89.68609865
4.194,-0.246233697,89.68609865
4.195,-0.247510622,89.68609865
4.196,-0.248787547,89.68609865
4.197,-0.249745241,89.68609865
4.198,-0.251022166,89.68609865
4.199,-0.252618322,89.68609865
4.2,-0.25485294,89.68609865
4.201,-0.257726021,89.68609865
4.202,-0.261556796,89.68609865
4.203,-0.266345264,89.68609865
4.204,-0.271452963,89.68609865
4.205,-0.277199125,89.68609865
4.206,-0.282945287,89.68609865
4.207,-0.288372217,89.68609865
4.208,-0.293160686,89.68609865
4.209,-0.297310691,89.68609865
4.21,-0.300822235,89.68609865
4.211,-0.303376084,89.68609865
4.212,-0.30497224,89.68609865
4.213,-0.305610703,89.68609865
4.214,-0.305291472,89.68609865
4.215,-0.304653009,89.68609865
4.216,-0.303695316,89.68609865
4.217,-0.302737622,89.68609865
4.218,-0.302418391,89.68609865
4.219,-0.302418391,89.68609865
4.22,-0.303695316,89.68609865
4.221,-0.305929934,89.68609865
4.222,-0.309441477,89.68609865
4.223,-0.313910714,89.68609865
4.224,-0.319337645,89.68609865
4.225,-0.324764576,89.68609865
4.226,-0.330829969,89.68609865
4.227,-0.33657613,89.68609865
4.228,-0.34168383,89.68609865
4.229,-0.345833836,89.68609865
4.23,-0.349026148,89.68609865
4.231,-0.350941535,89.68609865
4.232,-0.351579997,89.68609865
4.233,-0.350622304,89.68609865
4.234,-0.348706916,89.68609865
4.235,-0.346472298,89.68609865
4.236,-0.343599217,89.68609865
4.237,-0.340406905,89.68609865
4.238,-0.337533824,89.68609865
4.239,-0.334979974,89.68609865
4.24,-0.33370305,89.68609865
4.241,-0.333383818,89.68609865
4.242,-0.334341512,89.68609865
4.243,-0.33657613,89.68609865
4.244,-0.339768443,89.68609865
4.245,-0.343599217,89.68609865
4.246,-0.347749223,89.68609865
4.247,-0.35221846,89.68609865
4.248,-0.356687697,89.68609865
4.249,-0.36019924,89.68609865
4.25,-0.363391552,89.68609865
4.251,-0.365626171,89.68609865
4.252,-0.366583864,89.68609865
4.253,-0.366264633,89.68609865
4.254,-0.36530694,89.68609865
4.255,-0.363072321,89.68609865
4.256,-0.360518471,89.68609865
4.257,-0.357964622,89.68609865
4.258,-0.355730003,89.68609865
4.259,-0.353814616,89.68609865
4.26,-0.352856922,89.68609865
4.261,-0.352537691,89.68609865
4.262,-0.353176153,89.68609865
4.263,-0.35477231,89.68609865
4.264,-0.357326159,89.68609865
4.265,-0.360518471,89.68609865
4.266,-0.364349246,89.68609865
4.267,-0.368499252,89.68609865
4.268,-0.372968489,89.68609865
4.269,-0.376799263,89.68609865
4.27,-0.379991575,89.68609865
4.271,-0.382545425,89.68609865
4.272,-0.384141581,89.68609865
4.273,-0.384780043,89.68609865
4.274,-0.384460812,89.68609865
4.275,-0.383503119,89.68609865
4.276,-0.382545425,89.68609865
4.277,-0.3812685,89.68609865
4.278,-0.380630038,89.68609865
4.279,-0.380310806,89.68609865
4.28,-0.380949269,89.68609865
4.281,-0.382545425,89.68609865
4.282,-0.385099275,89.68609865
4.283,-0.388610818,89.68609865
4.284,-0.393080055,89.68609865
4.285,-0.397868523,89.68609865
4.286,-0.402656991,89.68609865
4.287,-0.40744546,89.68609865
4.288,-0.411595465,89.68609865
4.289,-0.414787777,89.68609865
4.29,-0.417341627,89.68609865
4.291,-0.418937783,89.68609865
4.292,-0.419895477,89.68609865
4.293,-0.419895477,89.68609865
4.294,-0.418937783,89.68609865
4.295,-0.417341627,89.68609865
4.296,-0.415107009,89.68609865
4.297,-0.413191621,89.68609865
4.298,-0.411595465,89.68609865
4.299,-0.410637772,89.68609865
4.3,-0.410637772,89.68609865
4.301,-0.411914696,89.68609865
4.302,-0.414149315,89.68609865
4.303,-0.417341627,89.68609865
4.304,-0.421491633,89.68609865
4.305,-0.426280101,89.68609865
4.306,-0.431707032,89.68609865
4.307,-0.437133962,89.68609865
4.308,-0.442880124,89.68609865
4.309,-0.447987823,89.68609865
4.31,-0.452776292,89.68609865
4.311,-0.456287835,89.68609865
4.312,-0.459160916,89.68609865
4.313,-0.461076303,89.68609865
4.314,-0.461714766,89.68609865
4.315,-0.461714766,89.68609865
4.316,-0.461395534,89.68609865
4.317,-0.461076303,89.68609865
4.318,-0.460757072,89.68609865
4.319,-0.461076303,89.68609865
4.32,-0.462033997,89.68609865
4.321,-0.463630153,89.68609865
4.322,-0.465864771,89.68609865
4.323,-0.469057083,89.68609865
4.324,-0.472887858,89.68609865
4.325,-0.477037864,89.68609865
4.326,-0.48118787,89.68609865
4.327,-0.485657106,89.68609865
4.328,-0.489487881,89.68609865
4.329,-0.493318656,89.68609865
4.33,-0.496191736,89.68609865
4.331,-0.497787893,89.68609865
4.332,-0.498426355,89.68609865
4.333,-0.498107124,89.68609865
4.334,-0.496510968,89.68609865
4.335,-0.494914812,89.68609865
4.336,-0.492680193,89.68609865
4.337,-0.490764806,89.68609865
4.338,-0.48916865,89.68609865
4.339,-0.488210956,89.68609865
4.34,-0.487891725,89.68609865
4.341,-0.488530187,89.68609865
4.342,-0.489807112,89.68609865
4.343,-0.492360962,89.68609865
4.344,-0.495234043,89.68609865
4.345,-0.498745586,89.68609865
4.346,-0.50225713,89.68609865
4.347,-0.505768673,89.68609865
4.348,-0.508960985,89.68609865
4.349,-0.511514835,89.68609865
4.35,-0.513430222,89.68609865
4.351,-0.515026378,89.68609865
4.352,-0.51566484,89.68609865
4.353,-0.51566484,89.68609865
4.354,-0.515026378,89.68609865
4.355,-0.514068684,89.68609865
4.356,-0.51279176,89.68609865
4.357,-0.511514835,89.68609865
4.358,-0.510557141,89.68609865
4.359,-0.509918679,89.68609865
4.36,-0.51023791,89.68609865
4.361,-0.511514835,89.68609865
