Time,"CH 1, ECG","CH40, Heart Rate"
sec,mV,BPM
0,0.006278191,0
0.001,0.006278191,0
0.002,0.005320498,0
0.003,0.001808954,0
0.004,-0.00457567,0
0.005,-0.014152606,0
0.006,-0.025325699,0
0.007,-0.037456485,0
0.008,-0.048629577,0
0.009,-0.057568051,0
0.01,-0.062994982,0
0.011,-0.063952675,0
0.012,-0.060760363,0
0.013,-0.052779583,0
0.014,-0.040010334,0
0.015,-0.022771849,0
0.016,-0.001064126,0
0.017,0.024155139,0
0.018,0.052566717,0
0.019,0.083851376,0
0.02,0.116732191,0
0.021,0.150570699,0
0.022,0.185366901,0
0.023,0.220801566,0
0.024,0.256236231,0
0.025,0.291670895,0
0.026,0.32710556,0
0.027,0.363497918,0
0.028,0.40084797,0
0.029,0.440113409,0
0.03,0.481294235,0
0.031,0.525028911,0
0.032,0.571636668,0
0.033,0.621436737,0
0.034,0.675386812,0
0.035,0.73284843,0
0.036,0.793502361,0
0.037,0.855433216,0
0.038,0.916406377,0
0.039,0.972910302,0
0.04,1.02239114,0
0.041,1.061337348,0
0.042,1.087514307,0
0.043,1.098687399,0
0.044,1.093260469,0
0.045,1.070914284,0
0.046,1.031648845,0
0.047,0.976421845,0
0.048,0.907787135,0
0.049,0.827979331,0
0.05,0.739871517,0
0.051,0.647294465,0
0.052,0.553121258,0
0.053,0.461182669,0
0.054,0.374351779,0
0.055,0.29550167,0
0.056,0.226547728,0
0.057,0.168447647,0
0.058,0.122478353,0
0.059,0.087362919,0
0.06,0.062143654,0
0.061,0.045543631,0
0.062,0.035647463,0
0.063,0.030539764,0
0.064,0.027666683,0
0.065,0.025751295,0
0.066,0.023197446,0
0.067,0.019685902,0
0.068,0.014258972,0
0.069,0.006916654,0
0.07,-0.001064126,0
0.071,-0.009364138,0
0.072,-0.016706456,0
0.073,-0.022133386,0
0.074,-0.024048774,0
0.075,-0.021814155,0
0.076,-0.0151103,0
0.077,-0.003937207,0
0.078,0.01106666,0
0.079,0.028943607,0
0.08,0.048416711,0
0.081,0.067570584,0
0.082,0.08480907,0
0.083,0.098536012,0
0.084,0.107474486,0
0.085,0.110666798,0
0.086,0.107793717,0
0.087,0.099174474,0
0.088,0.085766763,0
0.089,0.068528278,0
0.09,0.049374405,0
0.091,0.02958207,0
0.092,0.011385891,0
0.093,-0.003617976,0
0.094,-0.014471837,0
0.095,-0.020217999,0
0.096,-0.019898768,0
0.097,-0.013833375,0
0.098,-0.002660283,0
0.099,0.012343584,0
0.1,0.029901301,0
0.101,0.048416711,0
0.102,0.065655197,0
0.103,0.080339833,0
0.104,0.090555231,0
0.105,0.095024468,0
0.106,0.093747544,0
0.107,0.086724457,0
0.108,0.074593671,0
0.109,0.05863211,0
0.11,0.040435931,0
0.111,0.02160129,0
0.112,0.004362804,0
0.113,-0.0100026,0
0.114,-0.019898768,0
0.115,-0.024687236,0
0.116,-0.023729543,0
0.117,-0.017025687,0
0.118,-0.005533363,0
0.119,0.009470504,0
0.12,0.027347451,0
0.121,0.045543631,0
0.122,0.063101347,0
0.123,0.077785983,0
0.124,0.088320613,0
0.125,0.093747544,0
0.126,0.093428312,0
0.127,0.087682151,0
0.128,0.077147521,0
0.129,0.063101347,0
0.13,0.046820555,0
0.131,0.030539764,0
0.132,0.015216665,0
0.133,0.003405111,0
0.134,-0.004894901,0
0.135,-0.008087213,0
0.136,-0.005533363,0
0.137,0.002128186,0
0.138,0.014258972,0
0.139,0.029901301,0
0.14,0.047459018,0
0.141,0.064697503,0
0.142,0.080339833,0
0.143,0.093109081,0
0.144,0.101089861,0
0.145,0.103962942,0
0.146,0.101089861,0
0.147,0.09278985,0
0.148,0.080020601,0
0.149,0.064059041,0
0.15,0.046501324,0
0.151,0.028943607,0
0.152,0.013620509,0
0.153,0.001808954,0
0.154,-0.005214132,0
0.155,-0.006810288,0
0.156,-0.002341051,0
0.157,0.007235885,0
0.158,0.02160129,0
0.159,0.039478237,0
0.16,0.059270573,0
0.161,0.079062908,0
0.162,0.096939856,0
0.163,0.111624491,0
0.164,0.121520659,0
0.165,0.125989896,0
0.166,0.124712971,0
0.167,0.117689884,0
0.168,0.106516792,0
0.169,0.091832156,0
0.17,0.075232133,0
0.171,0.05863211,0
0.172,0.043947474,0
0.173,0.03213592,0
0.174,0.025112833,0
0.175,0.023197446,0
0.176,0.026389758,0
0.177,0.034689769,0
0.178,0.046820555,0
0.179,0.062143654,0
0.18,0.079062908,0
0.181,0.0953437,0
0.182,0.109709104,0
0.183,0.120562965,0
0.184,0.12694759,0
0.185,0.127905283,0
0.186,0.123436046,0
0.187,0.114178341,0
0.188,0.10077063,0
0.189,0.085128301,0
0.19,0.068528278,0
0.191,0.052566717,0
0.192,0.038839775,0
0.193,0.029262839,0
0.194,0.024474371,0
0.195,0.025432064,0
0.196,0.03213592,0
0.197,0.043947474,0
0.198,0.059909035,0
0.199,0.078424445,0
0.2,0.098216781,0
0.201,0.116732191,0
0.202,0.132693751,0
0.203,0.144824537,0
0.204,0.151847624,0
0.205,0.153124549,0
0.206,0.148974543,0
0.207,0.139397607,0
0.208,0.125670665,0
0.209,0.109389873,0
0.21,0.091832156,0
0.211,0.074912902,0
0.212,0.060866729,0
0.213,0.05065133,0
0.214,0.045543631,0
0.215,0.046501324,0
0.216,0.052885948,0
0.217,0.064697503,0
0.218,0.080978295,0
0.219,0.099493705,0
0.22,0.118966809,0
0.221,0.137801451,0
0.222,0.154082243,0
0.223,0.166213029,0
0.224,0.173236115,0
0.225,0.174832271,0
0.226,0.171001497,0
0.227,0.162382254,0
0.228,0.149932237,0
0.229,0.13492837,0
0.23,0.118966809,0
0.231,0.103962942,0
0.232,0.091512925,0
0.233,0.082893682,0
0.234,0.079382139,0
0.235,0.081935989,0
0.236,0.089916769,0
0.237,0.10332448,0
0.238,0.120562965,0
0.239,0.140036069,0
0.24,0.160786098,0
0.241,0.179939971,0
0.242,0.196539994,0
0.243,0.208990011,0
0.244,0.216013098,0
0.245,0.217609254,0
0.246,0.213140017,0
0.247,0.204201543,0
0.248,0.191113063,0
0.249,0.175789965,0
0.25,0.159509173,0
0.251,0.144505306,0
0.252,0.13237452,0
0.253,0.124712971,0
0.254,0.122159121,0
0.255,0.125351434,0
0.256,0.133970676,0
0.257,0.147059156,0
0.258,0.164297641,0
0.259,0.183451514,0
0.26,0.202924618,0
0.261,0.221440028,0
0.262,0.236763127,0
0.263,0.247616988,0
0.264,0.253043918,0
0.265,0.253043918,0
0.266,0.247297757,0
0.267,0.236763127,0
0.268,0.222397722,0
0.269,0.205478468,0
0.27,0.187920751,0
0.271,0.171320728,0
0.272,0.157913017,0
0.273,0.148655312,0
0.274,0.144505306,0
0.275,0.146420694,0
0.276,0.15344378,0
0.277,0.165255335,0
0.278,0.180897664,0
0.279,0.19813615,0
0.28,0.216013098,0
0.281,0.232613121,0
0.282,0.246340063,0
0.283,0.255597768,0
0.284,0.259428543,0
0.285,0.257832387,0
0.286,0.2508093,0
0.287,0.238997745,0
0.288,0.223674647,0
0.289,0.206436161,0
0.29,0.188878445,0
0.291,0.172597653,0
0.292,0.159509173,0
0.293,0.150570699,0
0.294,0.146739925,0
0.295,0.148336081,0
0.296,0.155039936,0
0.297,0.165893797,0
0.298,0.180259202,0
0.299,0.196220763,0
0.3,0.211863092,0
0.301,0.225909265,0
0.302,0.236443895,0
0.303,0.241870826,0
0.304,0.242190057,0
0.305,0.237082358,0
0.306,0.226228497,0
0.307,0.210905398,0
0.308,0.192389988,0
0.309,0.172278422,0
0.31,0.152166855,0
0.311,0.133970676,0
0.312,0.119286041,0
0.313,0.109389873,0
0.314,0.105239867,0
0.315,0.106516792,0
0.316,0.113220647,0
0.317,0.124074509,0
0.318,0.138120682,0
0.319,0.153763011,0
0.32,0.16908611,0
0.321,0.182493821,0
0.322,0.192389988,0
0.323,0.197497687,0
0.324,0.196859225,0
0.325,0.190793832,0
0.326,0.178982277,0
0.327,0.163339948,0
0.328,0.144186075,0
0.329,0.124074509,0
0.33,0.103962942,0
0.331,0.086085994,0
0.332,0.07172059,0
0.333,0.062462885,0
0.334,0.058312879,0
0.335,0.060547497,0
0.336,0.067889815,0
0.337,0.07970137,0
0.338,0.094705237,0
0.339,0.110986029,0
0.34,0.126628358,0
0.341,0.139716838,0
0.342,0.148655312,0
0.343,0.152486087,0
0.344,0.150570699,0
0.345,0.14290915,0
0.346,0.130459133,0
0.347,0.113539879,0
0.348,0.094066775,0
0.349,0.072997515,0
0.35,0.052566717,0
0.351,0.034370538,0
0.352,0.019685902,0
0.353,0.010108966,0
0.354,0.006278191,0
0.355,0.008193579,0
0.356,0.015535897,0
0.357,0.027347451,0
0.358,0.042351318,0
0.359,0.058951341,0
0.36,0.074912902,0
0.361,0.088639844,0
0.362,0.098536012,0
0.363,0.103643711,0
0.364,0.10332448,0
0.365,0.097259087,0
0.366,0.086085994,0
0.367,0.070762896,0
0.368,0.05320518,0
0.369,0.034370538,0
0.37,0.01649359,0
0.371,0.001170492,0
0.372,-0.0100026,0
0.373,-0.016387225,0
0.374,-0.017025687,0
0.375,-0.012237219,0
0.376,-0.00202182,0
0.377,0.011705122,0
0.378,0.028624376,0
0.379,0.046182093,0
0.38,0.062782116,0
0.381,0.077147521,0
0.382,0.087043688,0
0.383,0.092151387,0
0.384,0.091512925,0
0.385,0.085128301,0
0.386,0.073316746,0
0.387,0.057993648,0
0.388,0.039797469,0
0.389,0.021282058,0
0.39,0.003724342,0
0.391,-0.011279525,0
0.392,-0.022133386,0
0.393,-0.028198779,0
0.394,-0.028518011,0
0.395,-0.023410311,0
0.396,-0.013194913,0
0.397,0.001170492,0
0.398,0.017451284,0
0.399,0.034689769,0
0.4,0.050970561,0
0.401,0.064697503,0
0.402,0.07427444,0
0.403,0.078743677,0
0.404,0.077466752,0
0.405,0.071082127,0
0.406,0.060228266,0
0.407,0.045862862,0
0.408,0.028943607,0
0.409,0.011705122,0
0.41,-0.003937207,0
0.411,-0.017025687,0
0.412,-0.025964161,0
0.413,-0.029475704,0
0.414,-0.027560317,0
0.415,-0.019898768,0
0.416,-0.007129519,0
0.417,0.00851281,0
0.418,0.026389758,0
0.419,0.044585937,0
0.42,0.06118596,0
0.421,0.07427444,0
0.422,0.083212914,0
0.423,0.086724457,0
0.424,0.084170607,0
0.425,0.076509058,0
0.426,0.06373981,0
0.427,0.047459018,0
0.428,0.028943607,0
0.429,0.010108966,0
0.43,-0.006810288,0
0.431,-0.021175693,0
0.432,-0.03107186,0
0.433,-0.035541097,0
0.434,-0.034264173,0
0.435,-0.027241086,0
0.436,-0.015748762,0
0.437,-0.000425664,0
0.438,0.016812821,0
0.439,0.034370538,0
0.44,0.050332099,0
0.441,0.063420578,0
0.442,0.07172059,0
0.443,0.074593671,0
0.444,0.072039821,0
0.445,0.064378272,0
0.446,0.051928255,0
0.447,0.036285925,0
0.448,0.018728209,0
0.449,0.001489723,0
0.45,-0.014471837,0
0.451,-0.027241086,0
0.452,-0.035221866,0
0.453,-0.038094947,0
0.454,-0.035541097,0
0.455,-0.027879548,0
0.456,-0.015429531,0
0.457,-0.000106433,0
0.458,0.01649359,0
0.459,0.033412844,0
0.46,0.048416711,0
0.461,0.059589804,0
0.462,0.065974428,0
0.463,0.066932122,0
0.464,0.062143654,0
0.465,0.051928255,0
0.466,0.037243619,0
0.467,0.019685902,0
0.468,0.001170492,0
0.469,-0.017664149,0
0.47,-0.034583404,0
0.471,-0.048310346,0
0.472,-0.05724882,0
0.473,-0.060441132,0
0.474,-0.058206513,0
0.475,-0.050225733,0
0.476,-0.037775716,0
0.477,-0.022133386,0
0.478,-0.004894901,0
0.479,0.012024353,0
0.48,0.027347451,0
0.481,0.039159006,0
0.482,0.046501324,0
0.483,0.04809748,0
0.484,0.043628243,0
0.485,0.034051307,0
0.486,0.020005134,0
0.487,0.003405111,0
0.488,-0.0151103,0
0.489,-0.03362571,0
0.49,-0.049906502,0
0.491,-0.062994982,0
0.492,-0.070975762,0
0.493,-0.073848843,0
0.494,-0.071294993,0
0.495,-0.063314213,0
0.496,-0.051183427,0
0.497,-0.036498791,0
0.498,-0.02053723,0
0.499,-0.005533363,0
0.5,0.007235885,0
0.501,0.01649359,0
0.502,0.020643596,0
0.503,0.020005134,0
0.504,0.013620509,0
0.505,0.002766648,0
0.506,-0.012237219,0
0.507,-0.029794936,0
0.508,-0.047991115,0
0.509,-0.065548831,0
0.51,-0.080871929,0
0.511,-0.092045022,0
0.512,-0.098429646,0
0.513,-0.09938734,0
0.514,-0.094598872,0
0.515,-0.084702704,0
0.516,-0.070975762,0
0.517,-0.054375739,0
0.518,-0.036818022,0
0.519,-0.019898768,0
0.52,-0.005533363,0
0.521,0.004362804,0
0.522,0.009151272,0
0.523,0.00851281,0
0.524,0.002447417,0
0.525,-0.008725676,0
0.526,-0.024048774,0
0.527,-0.041925722,0
0.528,-0.060760363,0
0.529,-0.078637311,0
0.53,-0.093960409,0
0.531,-0.10481427,0
0.532,-0.110879663,0
0.533,-0.110879663,0
0.534,-0.105452733,0
0.535,-0.094918103,0
0.536,-0.080871929,0
0.537,-0.063952675,0
0.538,-0.04671419,0
0.539,-0.030433398,0
0.54,-0.016706456,0
0.541,-0.007129519,0
0.542,-0.002660283,0
0.543,-0.003298745,0
0.544,-0.009683369,0
0.545,-0.020856462,0
0.546,-0.035541097,0
0.547,-0.052779583,0
0.548,-0.070656531,0
0.549,-0.087575785,0
0.55,-0.101302727,0
0.551,-0.110879663,0
0.552,-0.1153489,0
0.553,-0.114391207,0
0.554,-0.107687351,0
0.555,-0.096514259,0
0.556,-0.081510392,0
0.557,-0.064271906,0
0.558,-0.04671419,0
0.559,-0.030433398,0
0.56,-0.017664149,0
0.561,-0.009364138,0
0.562,-0.006491057,0
0.563,-0.009364138,0
0.564,-0.017983381,0
0.565,-0.031391092,0
0.566,-0.048310346,0
0.567,-0.067464219,0
0.568,-0.087256554,0
0.569,-0.105452733,0
0.57,-0.1204566,0
0.571,-0.13099123,0
0.572,-0.135779698,0
0.573,-0.134502773,0
0.574,-0.127798918,0
0.575,-0.115987363,0
0.576,-0.100345033,0
0.577,-0.082468086,0
0.578,-0.064271906,0
0.579,-0.047352652,0
0.58,-0.03362571,0
0.581,-0.023729543,0
0.582,-0.019260306,0
0.583,-0.02053723,0
0.584,-0.027560317,0
0.585,-0.039691103,0
0.586,-0.055014201,0
0.587,-0.072571918,0
0.588,-0.090448866,0
0.589,-0.107048889,0
0.59,-0.1204566,0
0.591,-0.129395074,0
0.592,-0.133545079,0
0.593,-0.131948923,0
0.594,-0.125245068,0
0.595,-0.113752744,0
0.596,-0.098748877,0
0.597,-0.082148854,0
0.598,-0.064910369,0
0.599,-0.049587271,0
0.6,-0.037456485,0
0.601,-0.030114167,0
0.602,-0.028198779,0
0.603,-0.031710323,0
0.604,-0.040329566,0
0.605,-0.053418045,0
0.606,-0.069698837,0
0.607,-0.086937323,0
0.608,-0.104495039,0
0.609,-0.119818137,0
0.61,-0.132268155,0
0.611,-0.139610473,0
0.612,-0.141845091,0
0.613,-0.138014316,0
0.614,-0.128756611,0
0.615,-0.114710438,0
0.616,-0.097471953,0
0.617,-0.078956542,0
0.618,-0.060121901,0
0.619,-0.043202646,0
0.62,-0.029475704,0
0.621,-0.02053723,0
0.622,-0.017025687,0
0.623,-0.018941074,0
0.624,-0.026283392,0
0.625,-0.037775716,0
0.626,-0.05214112,0
0.627,-0.068102681,0
0.628,-0.08374501,0
0.629,-0.097152721,0
0.63,-0.10736812,0
0.631,-0.112795051,0
0.632,-0.112795051,0
0.633,-0.10736812,0
0.634,-0.09683349,0
0.635,-0.081829623,0
0.636,-0.063633444,0
0.637,-0.04416034,0
0.638,-0.025006467,0
0.639,-0.008087213,0
0.64,0.005320498,0
0.641,0.013939741,0
0.642,0.017451284,0
0.643,0.015216665,0
0.644,0.00851281,0
0.645,-0.002341051,0
0.646,-0.015748762,0
0.647,-0.030114167,0
0.648,-0.043841109,0
0.649,-0.055333433,0
0.65,-0.06267575,0
0.651,-0.064910369,0
0.652,-0.062037288,0
0.653,-0.053098814,0
0.654,-0.039371872,0
0.655,-0.021494924,0
0.656,-0.001702589,0
0.657,0.018728209,0
0.658,0.038201313,0
0.659,0.054801336,0
0.66,0.067251353,0
0.661,0.073635977,0
0.662,0.073955208,0
0.663,0.067889815,0
0.664,0.056078261,0
0.665,0.039797469,0
0.666,0.020643596,0
0.667,0.000212798,0
0.668,-0.019898768,0
0.669,-0.037775716,0
0.67,-0.05214112,0
0.671,-0.061718057,0
0.672,-0.065868063,0
0.673,-0.064591138,0
0.674,-0.058206513,0
0.675,-0.047671883,0
0.676,-0.034583404,0
0.677,-0.020856462,0
0.678,-0.008087213,0
0.679,0.001808954,0
0.68,0.007235885,0
0.681,0.007874347,0
0.682,0.003085879,0
0.683,-0.007448751,0
0.684,-0.023410311,0
0.685,-0.043202646,0
0.686,-0.065548831,0
0.687,-0.08885271,0
0.688,-0.111198895,0
0.689,-0.13099123,0
0.69,-0.146633559,0
0.691,-0.156848958,0
0.692,-0.160998964,0
0.693,-0.159402808,0
0.694,-0.152379721,0
0.695,-0.140887397,0
0.696,-0.127160455,0
0.697,-0.111837357,0
0.698,-0.097791184,0
0.699,-0.085979629,0
0.7,-0.07831808,0
0.701,-0.07576423,0
0.702,-0.078956542,0
0.703,-0.087256554,0
0.704,-0.100345033,0
0.705,-0.117264288,0
0.706,-0.13641816,0
0.707,-0.156529727,0
0.708,-0.175045137,0
0.709,-0.191325929,0
0.71,-0.203137484,0
0.711,-0.209522108,0
0.712,-0.210479802,0
0.713,-0.205691333,0
0.714,-0.196114397,0
0.715,-0.182706686,0
0.716,-0.167383588,0
0.717,-0.151422027,0
0.718,-0.13641816,0
0.719,-0.124606606,0
0.72,-0.116625825,0
0.721,-0.113752744,0
0.722,-0.116625825,0
0.723,-0.124925837,0
0.724,-0.137695085,0
0.725,-0.154295108,0
0.726,-0.172810519,0
0.727,-0.19164516,0
0.728,-0.209202877,0
0.729,-0.223568281,0
0.73,-0.23378368,0
0.731,-0.238572148,0
0.732,-0.237614455,0
0.733,-0.23122983,0
0.734,-0.220375969,0
0.735,-0.205691333,0
0.736,-0.18909131,0
0.737,-0.172172056,0
0.738,-0.156529727,0
0.739,-0.144079709,0
0.74,-0.136098929,0
0.741,-0.133225848,0
0.742,-0.135779698,0
0.743,-0.144079709,0
0.744,-0.156529727,0
0.745,-0.172491287,0
0.746,-0.190049004,0
0.747,-0.207925952,0
0.748,-0.223887513,0
0.749,-0.236975992,0
0.75,-0.245276004,0
0.751,-0.248468316,0
0.752,-0.246233697,0
0.753,-0.238572148,0
0.754,-0.226760593,0
0.755,-0.212075958,0
0.756,-0.196433628,0
0.757,-0.18111053,0
0.758,-0.16802205,0
0.759,-0.159083576,0
0.76,-0.154933571,0
0.761,-0.156529727,0
0.762,-0.164510507,0
0.763,-0.177598987,0
0.764,-0.195795166,0
0.765,-0.216864426,0
0.766,-0.239210611,0
0.767,-0.261556796,0
0.768,-0.281668362,0
0.769,-0.297629923,0
0.77,-0.308164553,0
0.771,-0.311995327,0
0.772,-0.308803015,0
0.773,-0.298268385,0
0.774,-0.281668362,0
0.775,-0.25996064,0
0.776,-0.234422143,0
0.777,-0.206649027,0
0.778,-0.177918218,0
0.779,-0.149187409,0
0.78,-0.121095062,0
0.781,-0.093321947,0
0.782,-0.066187294,0
0.783,-0.039052641,0
0.784,-0.010641063,0
0.785,0.020324365,0
0.786,0.055120567,0
0.787,0.095024468,0
0.788,0.140674532,0
0.789,0.191751526,0
0.79,0.248893913,0
0.791,0.31146323,0
0.792,0.378821016,0
0.793,0.450009576,0
0.794,0.52215583,0
0.795,0.593025159,0
0.796,0.658786789,0
0.797,0.715609945,0
0.798,0.759983083,0
0.799,0.789033124,0
0.8,0.80116391,0
0.801,0.795417748,0
0.802,0.772113869,0
0.803,0.731571505,0
0.804,0.676344506,0
0.805,0.60898672,0
0.806,0.532051998,0
0.807,0.449051883,0
0.808,0.363497918,0
0.809,0.277943953,0
0.81,0.1955823,0
0.811,0.118966809,0
0.812,0.049693636,0
0.813,-0.010641063,0
0.814,-0.06267575,0
0.815,-0.106410426,0
0.816,-0.142164322,0
0.817,-0.171852825,0
0.818,-0.196433628,0
0.819,-0.217183657,0
0.82,-0.235699067,0
0.821,-0.252937553,0
0.822,-0.269856807,0
0.823,-0.28645683,0
0.824,-0.302418391,0
0.825,-0.317422258,0
0.826,-0.330510737,0
0.827,-0.340726136,0
0.828,-0.346791529,0
0.829,-0.348387685,0
0.83,-0.344876142,0
0.831,-0.336256899,0
0.832,-0.322849188,0
0.833,-0.305291472,0
0.834,-0.284860674,0
0.835,-0.263152952,0
0.836,-0.242083692,0
0.837,-0.22324905,0
0.838,-0.207606721,0
0.839,-0.197072091,0
0.84,-0.192602854,0
0.841,-0.19419901,0
0.842,-0.20217979,0
0.843,-0.21526827,0
0.844,-0.232506755,0
0.845,-0.252618322,0
0.846,-0.273049119,0
0.847,-0.292522223,0
0.848,-0.309122246,0
0.849,-0.321572263,0
0.85,-0.328276119,0
0.851,-0.328914581,0
0.852,-0.323806882,0
0.853,-0.313591483,0
0.854,-0.299226079,0
0.855,-0.282306824,0
0.856,-0.264110645,0
0.857,-0.247191391,0
0.858,-0.233145218,0
0.859,-0.22324905,0
0.86,-0.218460582,0
0.861,-0.219737507,0
0.862,-0.226122131,0
0.863,-0.237614455,0
0.864,-0.25229909,0
0.865,-0.268899113,0
0.866,-0.286137599,0
0.867,-0.301779928,0
0.868,-0.314868408,0
0.869,-0.323806882,0
0.87,-0.327637656,0
0.871,-0.325722269,0
0.872,-0.318379951,0
0.873,-0.305929934,0
0.874,-0.289649142,0
0.875,-0.271133732,0
0.876,-0.25229909,0
0.877,-0.235060605,0
0.878,-0.2206952,0
0.879,-0.211118264,0
0.88,-0.206649027,0
0.881,-0.207925952,0
0.882,-0.214629807,0
0.883,-0.226122131,0
0.884,-0.240806767,0
0.885,-0.257726021,0
0.886,-0.274964506,0
0.887,-0.291245298,0
0.888,-0.304014547,0
0.889,-0.31263379,0
0.89,-0.315826102,0
0.891,-0.313272252,0
0.892,-0.30497224,0
0.893,-0.292202992,0
0.894,-0.2759222,0
0.895,-0.257726021,0
0.896,-0.239210611,0
0.897,-0.222291356,0
0.898,-0.208883646,0
0.899,-0.199945172,0
0.9,-0.196433628,0
0.901,-0.198349016,0
0.902,-0.206010565,0
0.903,-0.21782212,0
0.904,-0.233145218,0
0.905,-0.250064472,0
0.906,-0.266983726,0
0.907,-0.282306824,0
0.908,-0.29443761,0
0.909,-0.30209916,0
0.91,-0.304333778,0
0.911,-0.301141466,0
0.912,-0.292522223,0
0.913,-0.279433743,0
0.914,-0.263152952,0
0.915,-0.245276004,0
0.916,-0.227399056,0
0.917,-0.211118264,0
0.918,-0.198349016,0
0.919,-0.190049004,0
0.92,-0.187175923,0
0.921,-0.189410542,0
0.922,-0.197391322,0
0.923,-0.209522108,0
0.924,-0.224845206,0
0.925,-0.24176446,0
0.926,-0.258683715,0
0.927,-0.273687582,0
0.928,-0.284860674,0
0.929,-0.29156453,0
0.93,-0.292841454,0
0.931,-0.288372217,0
0.932,-0.27847605,0
0.933,-0.264749108,0
0.934,-0.247829853,0
0.935,-0.229633674,0
0.936,-0.211756726,0
0.937,-0.196114397,0
0.938,-0.18366438,0
0.939,-0.176322062,0
0.94,-0.174087443,0
0.941,-0.177598987,0
0.942,-0.18621823,0
0.943,-0.198987478,0
0.944,-0.214310576,0
0.945,-0.230910599,0
0.946,-0.24687216,0
0.947,-0.260599102,0
0.948,-0.270814501,0
0.949,-0.276241431,0
0.95,-0.276241431,0
0.951,-0.270176038,0
0.952,-0.259002946,0
0.953,-0.243679848,0
0.954,-0.225483669,0
0.955,-0.206329796,0
0.956,-0.187814386,0
0.957,-0.171214363,0
0.958,-0.158764345,0
0.959,-0.151102796,0
0.96,-0.149187409,0
0.961,-0.152698952,0
0.962,-0.161318195,0
0.963,-0.174406675,0
0.964,-0.189729773,0
0.965,-0.206329796,0
0.966,-0.221972125,0
0.967,-0.235379836,0
0.968,-0.244956773,0
0.969,-0.249745241,0
0.97,-0.248787547,0
0.971,-0.242402923,0
0.972,-0.230910599,0
0.973,-0.21526827,0
0.974,-0.197072091,0
0.975,-0.177918218,0
0.976,-0.159402808,0
0.977,-0.143441247,0
0.978,-0.131310461,0
0.979,-0.123968143,0
0.98,-0.122371987,0
0.981,-0.126202762,0
0.982,-0.134822004,0
0.983,-0.14695279,0
0.984,-0.161637426,0
0.985,-0.176960524,0
0.986,-0.191006698,0
0.987,-0.20217979,0
0.988,-0.209522108,0
0.989,-0.211756726,0
0.99,-0.208245183,0
0.991,-0.198987478,0
0.992,-0.184941305,0
0.993,-0.167064357,0
0.994,-0.146633559,0
0.995,-0.12588353,0
0.996,-0.106091195,0
0.997,-0.089171941,0
0.998,-0.076402693,0
0.999,-0.069060375,0
1,-0.067464219,0
1.001,-0.071614224,0
1.002,-0.080552698,0
1.003,-0.093321947,0
1.004,-0.108325814,0
1.005,-0.123968143,0
1.006,-0.138333548,0
1.007,-0.150145103,0
1.008,-0.15748742,0
1.009,-0.159722039,0
1.01,-0.156529727,0
1.011,-0.147591253,0
1.012,-0.133864311,0
1.013,-0.116625825,0
1.014,-0.097791184,0
1.015,-0.07831808,0
1.016,-0.060760363,0
1.017,-0.045756496,0
1.018,-0.035221866,0
1.019,-0.030114167,0
1.02,-0.030433398,0
1.021,-0.03617956,0
1.022,-0.04671419,0
1.023,-0.060760363,0
1.024,-0.077041155,0
1.025,-0.093641178,0
1.026,-0.108964276,0
1.027,-0.121095062,0
1.028,-0.12843738,0
1.029,-0.130671999,0
1.03,-0.127160455,0
1.031,-0.118221981,0
1.032,-0.104495039,0
1.033,-0.087575785,0
1.034,-0.068741143,0
1.035,-0.049906502,0
1.036,-0.032668016,0
1.037,-0.018941074,0
1.038,-0.0100026,0
1.039,-0.006810288,0
1.04,-0.009683369,0
1.041,-0.017983381,0
1.042,-0.03107186,0
1.043,-0.047991115,0
1.044,-0.067144987,0
1.045,-0.086618091,0
1.046,-0.104495039,0
1.047,-0.119498906,0
1.048,-0.129714305,0
1.049,-0.134502773,0
1.05,-0.133545079,0
1.051,-0.126841224,0
1.052,-0.115668132,0
1.053,-0.100664265,0
1.054,-0.084383473,0
1.055,-0.068102681,0
1.056,-0.053418045,0
1.057,-0.042244953,0
1.058,-0.035541097,0
1.059,-0.034583404,0
1.06,-0.039052641,0
1.061,-0.048629577,0
1.062,-0.062994982,0
1.063,-0.080552698,0
1.064,-0.099706571,0
1.065,-0.118860444,0
1.066,-0.136098929,0
1.067,-0.150464334,0
1.068,-0.159722039,0
1.069,-0.163872045,0
1.07,-0.162275889,0
1.071,-0.155252802,0
1.072,-0.144398941,0
1.073,-0.130033536,0
1.074,-0.114710438,0
1.075,-0.099068109,0
1.076,-0.085660398,0
1.077,-0.075444999,0
1.078,-0.070018068,0
1.079,-0.070018068,0
1.08,-0.07576423,0
1.081,-0.086618091,0
1.082,-0.102260421,0
1.083,-0.120775831,0
1.084,-0.140568166,0
1.085,-0.160360501,0
1.086,-0.177918218,0
1.087,-0.19164516,0
1.088,-0.200583634,0
1.089,-0.203775946,0
1.09,-0.201541328,0
1.091,-0.193879779,0
1.092,-0.182068224,0
1.093,-0.167064357,0
1.094,-0.150783565,0
1.095,-0.134822004,0
1.096,-0.121095062,0
1.097,-0.111198895,0
1.098,-0.106410426,0
1.099,-0.10736812,0
1.1,-0.114071976,0
1.101,-0.126202762,0
1.102,-0.142483553,0
1.103,-0.161318195,0
1.104,-0.181429761,0
1.105,-0.201222096,0
1.106,-0.218779813,0
1.107,-0.232506755,0
1.108,-0.241445229,0
1.109,-0.244956773,0
1.11,-0.242402923,0
1.111,-0.234741374,0
1.112,-0.222929819,0
1.113,-0.208245183,0
1.114,-0.192283623,0
1.115,-0.176641293,0
1.116,-0.163552813,0
1.117,-0.153975877,0
1.118,-0.149187409,0
1.119,-0.150145103,0
1.12,-0.156529727,0
1.121,-0.167702819,0
1.122,-0.183025917,0
1.123,-0.200902865,0
1.124,-0.219418276,0
1.125,-0.237295223,0
1.126,-0.25229909,0
1.127,-0.263152952,0
1.128,-0.268579882,0
1.129,-0.268579882,0
1.13,-0.262514489,0
1.131,-0.251022166,0
1.132,-0.235699067,0
1.133,-0.21782212,0
1.134,-0.198987478,0
1.135,-0.180791299,0
1.136,-0.165148969,0
1.137,-0.153656646,0
1.138,-0.14695279,0
1.139,-0.146314328,0
1.14,-0.151422027,0
1.141,-0.161637426,0
1.142,-0.1756836,0
1.143,-0.192922085,0
1.144,-0.210479802,0
1.145,-0.227718287,0
1.146,-0.242402923,0
1.147,-0.252937553,0
1.148,-0.259002946,0
1.149,-0.259002946,0
1.15,-0.253895246,0
1.151,-0.243360616,0
1.152,-0.229314443,0
1.153,-0.213033651,0
1.154,-0.195795166,0
1.155,-0.179514374,0
1.156,-0.166106663,0
1.157,-0.156210496,0
1.158,-0.151422027,0
1.159,-0.151741259,0
1.16,-0.157806652,0
1.161,-0.16802205,0
1.162,-0.182068224,0
1.163,-0.198029784,0
1.164,-0.214629807,0
1.165,-0.229952906,0
1.166,-0.242402923,0
1.167,-0.250383703,0
1.168,-0.253256784,0
1.169,-0.250383703,0
1.17,-0.24176446,0
1.171,-0.228675981,0
1.172,-0.212075958,0
1.173,-0.193879779,0
1.174,-0.1756836,0
1.175,-0.158764345,0
1.176,-0.145037403,0
1.177,-0.135779698,0
1.178,-0.131948923,0
1.179,-0.133864311,0
1.18,-0.14152586,0
1.181,-0.153975877,0
1.182,-0.169937438,0
1.183,-0.187814386,0
1.184,-0.205691333,0
1.185,-0.221972125,0
1.186,-0.235060605,0
1.187,-0.243999079,0
1.188,-0.247510622,0
1.189,-0.245276004,0
1.19,-0.237614455,0
1.191,-0.225164437,0
1.192,-0.208883646,0
1.193,-0.190687466,0
1.194,-0.172172056,0
1.195,-0.155252802,0
1.196,-0.141206629,0
1.197,-0.131948923,0
1.198,-0.128118149,0
1.199,-0.130352767,0
1.2,-0.138333548,0
1.201,-0.151102796,0
1.202,-0.167064357,0
1.203,-0.184941305,0
1.204,-0.202818253,0
1.205,-0.219418276,0
1.206,-0.232825986,0
1.207,-0.24176446,0
1.208,-0.244956773,0
1.209,-0.242722154,0
1.21,-0.235060605,0
1.211,-0.222610588,0
1.212,-0.206968258,0
1.213,-0.190049004,0
1.214,-0.172810519,0
1.215,-0.15748742,0
1.216,-0.145675866,0
1.217,-0.138652779,0
1.218,-0.136737392,0
1.219,-0.140248935,0
1.22,-0.149187409,0
1.221,-0.16259512,0
1.222,-0.178875912,0
1.223,-0.19675286,0
1.224,-0.214629807,0
1.225,-0.230591368,0
1.226,-0.243041385,0
1.227,-0.251022166,0
1.228,-0.253576015,0
1.229,-0.250383703,0
1.23,-0.242083692,0
1.231,-0.229314443,0
1.232,-0.213352883,0
1.233,-0.196114397,0
1.234,-0.178875912,0
1.235,-0.163872045,0
1.236,-0.15206049,0
1.237,-0.145037403,0
1.238,-0.143441247,0
1.239,-0.147272022,0
1.24,-0.156848958,0
1.241,-0.170256669,0
1.242,-0.187175923,0
1.243,-0.205052871,0
1.244,-0.222610588,0
1.245,-0.238252917,0
1.246,-0.250064472,0
1.247,-0.25740679,0
1.248,-0.259002946,0
1.249,-0.255172171,0
1.25,-0.245914466,0
1.251,-0.232187524,0
1.252,-0.215906732,0
1.253,-0.198029784,0
1.254,-0.18111053,0
1.255,-0.166106663,0
1.256,-0.154933571,0
1.257,-0.148548946,0
1.258,-0.147910484,0
1.259,-0.152379721,0
1.26,-0.162275889,0
1.261,-0.176002831,0
1.262,-0.192602854,0
1.263,-0.21016057,0
1.264,-0.227399056,0
1.265,-0.242402923,0
1.266,-0.253576015,0
1.267,-0.25996064,0
1.268,-0.260918333,0
1.269,-0.256768327,0
1.27,-0.247191391,0
1.271,-0.23378368,0
1.272,-0.218141351,0
1.273,-0.201222096,0
1.274,-0.185260536,0
1.275,-0.171852825,0
1.276,-0.162275889,0
1.277,-0.157806652,0
1.278,-0.158764345,0
1.279,-0.165148969,0
1.28,-0.176322062,0
1.281,-0.191325929,0
1.282,-0.208564414,0
1.283,-0.226760593,0
1.284,-0.243679848,0
1.285,-0.258045252,0
1.286,-0.268579882,0
1.287,-0.27336835,0
1.288,-0.273049119,0
1.289,-0.266664495,0
1.29,-0.255491403,0
1.291,-0.240168304,0
1.292,-0.222929819,0
1.293,-0.20473364,0
1.294,-0.187495154,0
1.295,-0.17312975,0
1.296,-0.16259512,0
1.297,-0.157168189,0
1.298,-0.157168189,0
1.299,-0.16259512,0
1.3,-0.172810519,0
1.301,-0.186856692,0
1.302,-0.203775946,0
1.303,-0.221333663,0
1.304,-0.237614455,0
1.305,-0.251341397,0
1.306,-0.260918333,0
1.307,-0.265068339,0
1.308,-0.263472183,0
1.309,-0.256449096,0
1.31,-0.244637541,0
1.311,-0.229633674,0
1.312,-0.212395189,0
1.313,-0.194518241,0
1.314,-0.178237449,0
1.315,-0.164510507,0
1.316,-0.155252802,0
1.317,-0.150783565,0
1.318,-0.15206049,0
1.319,-0.158764345,0
1.32,-0.170256669,0
1.321,-0.185260536,0
1.322,-0.202499021,0
1.323,-0.220056738,0
1.324,-0.23633753,0
1.325,-0.249745241,0
1.326,-0.258364483,0
1.327,-0.261876027,0
1.328,-0.260279871,0
1.329,-0.252937553,0
1.33,-0.241125998,0
1.331,-0.226122131,0
1.332,-0.208883646,0
1.333,-0.19164516,0
1.334,-0.1756836,0
1.335,-0.162914351,0
1.336,-0.154614339,0
1.337,-0.151422027,0
1.338,-0.153656646,0
1.339,-0.161318195,0
1.34,-0.173768212,0
1.341,-0.18909131,0
1.342,-0.206329796,0
1.343,-0.223568281,0
1.344,-0.239210611,0
1.345,-0.251660628,0
1.346,-0.259322177,0
1.347,-0.261556796,0
1.348,-0.258045252,0
1.349,-0.24942601,0
1.35,-0.236018299,0
1.351,-0.219099044,0
1.352,-0.200902865,0
1.353,-0.182387455,0
1.354,-0.165787432,0
1.355,-0.152698952,0
1.356,-0.144398941,0
1.357,-0.14152586,0
1.358,-0.144079709,0
1.359,-0.15206049,0
1.36,-0.164829738,0
1.361,-0.180472068,0
1.362,-0.197710553,0
1.363,-0.214949039,0
1.364,-0.230591368,0
1.365,-0.242402923,0
1.366,-0.249745241,0
1.367,-0.251022166,0
1.368,-0.24687216,0
1.369,-0.236975992,0
1.37,-0.222610588,0
1.371,-0.205372102,0
1.372,-0.186856692,0
1.373,-0.168660513,0
1.374,-0.152379721,0
1.375,-0.139929704,0
1.376,-0.131948923,0
1.377,-0.129714305,0
1.378,-0.133225848,0
1.379,-0.142483553,0
1.38,-0.155891264,0
1.381,-0.172172056,0
1.382,-0.190049004,0
1.383,-0.208245183,0
1.384,-0.224206744,0
1.385,-0.236975992,0
1.386,-0.245276004,0
1.387,-0.247829853,0
1.388,-0.244956773,0
1.389,-0.236975992,0
1.39,-0.224206744,0
1.391,-0.208245183,0
1.392,-0.190687466,0
1.393,-0.173448981,0
1.394,-0.158445114,0
1.395,-0.146633559,0
1.396,-0.139291241,0
1.397,-0.137695085,0
1.398,-0.14152586,0
1.399,-0.150464334,0
1.4,-0.163233582,0
1.401,-0.178875912,0
1.402,-0.195795166,0
1.403,-0.212395189,0
1.404,-0.227079825,0
1.405,-0.237933686,0
1.406,-0.243999079,0
1.407,-0.244956773,0
1.408,-0.239849073,0
1.409,-0.230272137,0
1.41,-0.216225963,0
1.411,-0.19962594,0
1.412,-0.182068224,0
1.413,-0.165468201,0
1.414,-0.151102796,0
1.415,-0.140568166,0
1.416,-0.134822004,0
1.417,-0.134502773,0
1.418,-0.139610473,0
1.419,-0.149187409,0
1.42,-0.162275889,0
1.421,-0.177598987,0
1.422,-0.193560547,0
1.423,-0.207925952,0
1.424,-0.219737507,0
1.425,-0.227079825,0
1.426,-0.229314443,0
1.427,-0.225483669,0
1.428,-0.216225963,0
1.429,-0.201222096,0
1.43,-0.182387455,0
1.431,-0.160998964,0
1.432,-0.138652779,0
1.433,-0.117264288,0
1.434,-0.098429646,0
1.435,-0.08374501,0
1.436,-0.074806536,0
1.437,-0.071614224,0
1.438,-0.074487305,0
1.439,-0.082787317,0
1.44,-0.095237334,0
1.441,-0.110241201,0
1.442,-0.126202762,0
1.443,-0.14152586,0
1.444,-0.154614339,0
1.445,-0.163552813,0
1.446,-0.167702819,0
1.447,-0.165787432,0
1.448,-0.158445114,0
1.449,-0.145995097,0
1.45,-0.129395074,0
1.451,-0.10992197,0
1.452,-0.089810403,0
1.453,-0.070656531,0
1.454,-0.053737276,0
1.455,-0.040648797,0
1.456,-0.032987248,0
1.457,-0.030433398,0
1.458,-0.033944941,0
1.459,-0.041925722,0
1.46,-0.053737276,0
1.461,-0.068102681,0
1.462,-0.082787317,0
1.463,-0.09683349,0
1.464,-0.108645045,0
1.465,-0.116306594,0
1.466,-0.119498906,0
1.467,-0.117264288,0
1.468,-0.110241201,0
1.469,-0.098748877,0
1.47,-0.084064242,0
1.471,-0.06778345,0
1.472,-0.051183427,0
1.473,-0.03617956,0
1.474,-0.024687236,0
1.475,-0.017344918,0
1.476,-0.015429531,0
1.477,-0.019260306,0
1.478,-0.028837242,0
1.479,-0.042883415,0
1.48,-0.060760363,0
1.481,-0.080552698,0
1.482,-0.100983496,0
1.483,-0.1204566,0
1.484,-0.13641816,0
1.485,-0.148229715,0
1.486,-0.154933571,0
1.487,-0.155891264,0
1.488,-0.151422027,0
1.489,-0.142164322,0
1.49,-0.129714305,0
1.491,-0.115987363,0
1.492,-0.101941189,0
1.493,-0.089810403,0
1.494,-0.081191161,0
1.495,-0.076721924,0
1.496,-0.077679617,0
1.497,-0.084383473,0
1.498,-0.096514259,0
1.499,-0.112795051,0
1.5,-0.132587386,0
1.501,-0.154295108,0
1.502,-0.1756836,0
1.503,-0.195475935,0
1.504,-0.212075958,0
1.505,-0.223568281,0
1.506,-0.229633674,0
1.507,-0.229633674,0
1.508,-0.223887513,0
1.509,-0.213672114,0
1.51,-0.19962594,0
1.511,-0.184302842,0
1.512,-0.168660513,0
1.513,-0.154933571,0
1.514,-0.144398941,0
1.515,-0.138014316,0
1.516,-0.137056623,0
1.517,-0.14152586,0
1.518,-0.151422027,0
1.519,-0.165148969,0
1.52,-0.182068224,0
1.521,-0.200264403,0
1.522,-0.21782212,0
1.523,-0.233464449,0
1.524,-0.245914466,0
1.525,-0.253256784,0
1.526,-0.255491403,0
1.527,-0.251979859,0
1.528,-0.242722154,0
1.529,-0.229314443,0
1.53,-0.212395189,0
1.531,-0.19419901,0
1.532,-0.176322062,0
1.533,-0.160679733,0
1.534,-0.148229715,0
1.535,-0.140887397,0
1.536,-0.139291241,0
1.537,-0.143122016,0
1.538,-0.152379721,0
1.539,-0.166106663,0
1.54,-0.182706686,0
1.541,-0.200264403,0
1.542,-0.217502888,0
1.543,-0.232506755,0
1.544,-0.243999079,0
1.545,-0.250064472,0
1.546,-0.250383703,0
1.547,-0.244956773,0
1.548,-0.234422143,0
1.549,-0.219418276,0
1.55,-0.201541328,0
1.551,-0.182387455,0
1.552,-0.163552813,0
1.553,-0.14695279,0
1.554,-0.134502773,0
1.555,-0.126841224,0
1.556,-0.125245068,0
1.557,-0.129075843,0
1.558,-0.138652779,0
1.559,-0.152379721,0
1.56,-0.169298975,0
1.561,-0.187814386,0
1.562,-0.206649027,0
1.563,-0.223568281,0
1.564,-0.237295223,0
1.565,-0.246552929,0
1.566,-0.250702934,0
1.567,-0.249745241,0
1.568,-0.243999079,0
1.569,-0.234422143,0
1.57,-0.222291356,0
1.571,-0.209841339,0
1.572,-0.197710553,0
1.573,-0.188133617,0
1.574,-0.181748993,0
1.575,-0.179514374,0
1.576,-0.182068224,0
1.577,-0.189410542,0
1.578,-0.200264403,0
1.579,-0.213672114,0
1.58,-0.227718287,0
1.581,-0.240806767,0
1.582,-0.250702934,0
1.583,-0.256129865,0
1.584,-0.254533709,0
1.585,-0.244956773,0
1.586,-0.225483669,0
1.587,-0.195795166,0
1.588,-0.155891264,0
1.589,-0.106410426,0
1.59,-0.048948808,0
1.591,0.014897434,0
1.592,0.083851376,0
1.593,0.155359167,0
1.594,0.22718619,0
1.595,0.297097826,0
1.596,0.363817149,0
1.597,0.426386467,0
1.598,0.484486547,0
1.599,0.538117391,0
1.6,0.58791746,0
1.601,0.633567523,0
1.602,0.67474835,0
1.603,0.711459939,0
1.604,0.742744598,0
1.605,0.767963864,0
1.606,0.786479274,0
1.607,0.797013904,0
1.608,0.799248522,0
1.609,0.791586973,0
1.61,0.773710025,0
1.611,0.744659985,0
1.612,0.70379839,0
1.613,0.65112524,0
1.614,0.586959766,0
1.615,0.511940431,0
1.616,0.427982623,74.16563659
1.617,0.337001727,74.16563659
1.618,0.241870826,74.16563659
1.619,0.145463,74.16563659
1.62,0.050970561,74.16563659
1.621,-0.038094947,74.16563659
1.622,-0.119498906,74.16563659
1.623,-0.190049004,74.16563659
1.624,-0.248149085,74.16563659
1.625,-0.291883761,74.16563659
1.626,-0.321253032,74.16563659
1.627,-0.336895362,74.16563659
1.628,-0.339768443,74.16563659
1.629,-0.332426125,74.16563659
1.63,-0.317103026,74.16563659
1.631,-0.296352998,74.16563659
1.632,-0.273049119,74.16563659
1.633,-0.250064472,74.16563659
1.634,-0.229952906,74.16563659
1.635,-0.213991345,74.16563659
1.636,-0.203775946,74.16563659
1.637,-0.19962594,74.16563659
1.638,-0.201222096,74.16563659
1.639,-0.207606721,74.16563659
1.64,-0.21782212,74.16563659
1.641,-0.229314443,74.16563659
1.642,-0.240806767,74.16563659
1.643,-0.250702934,74.16563659
1.644,-0.257726021,74.16563659
1.645,-0.260599102,74.16563659
1.646,-0.259002946,74.16563659
1.647,-0.252937553,74.16563659
1.648,-0.243041385,74.16563659
1.649,-0.230272137,74.16563659
1.65,-0.215906732,74.16563659
1.651,-0.201541328,74.16563659
1.652,-0.188452848,74.16563659
1.653,-0.178237449,74.16563659
1.654,-0.172491287,74.16563659
1.655,-0.171533594,74.16563659
1.656,-0.176002831,74.16563659
1.657,-0.185260536,74.16563659
1.658,-0.198987478,74.16563659
1.659,-0.21526827,74.16563659
1.66,-0.233145218,74.16563659
1.661,-0.250383703,74.16563659
1.662,-0.265706801,74.16563659
1.663,-0.277199125,74.16563659
1.664,-0.28390298,74.16563659
1.665,-0.285499136,74.16563659
1.666,-0.2810299,74.16563659
1.667,-0.271452963,74.16563659
1.668,-0.257087559,74.16563659
1.669,-0.239529842,74.16563659
1.67,-0.220375969,74.16563659
1.671,-0.201222096,74.16563659
1.672,-0.183983611,74.16563659
1.673,-0.169937438,74.16563659
1.674,-0.160998964,74.16563659
1.675,-0.15748742,74.16563659
1.676,-0.159722039,74.16563659
1.677,-0.167702819,74.16563659
1.678,-0.179833605,74.16563659
1.679,-0.195475935,74.16563659
1.68,-0.21271442,74.16563659
1.681,-0.229952906,74.16563659
1.682,-0.245276004,74.16563659
1.683,-0.257087559,74.16563659
1.684,-0.264110645,74.16563659
1.685,-0.26538757,74.16563659
1.686,-0.261237564,74.16563659
1.687,-0.251022166,74.16563659
1.688,-0.236656761,74.16563659
1.689,-0.219099044,74.16563659
1.69,-0.199945172,74.16563659
1.691,-0.181748993,74.16563659
1.692,-0.165148969,74.16563659
1.693,-0.152379721,74.16563659
1.694,-0.144079709,74.16563659
1.695,-0.141206629,74.16563659
1.696,-0.143760478,74.16563659
1.697,-0.151422027,74.16563659
1.698,-0.162914351,74.16563659
1.699,-0.177279756,74.16563659
1.7,-0.193241316,74.16563659
1.701,-0.208883646,74.16563659
1.702,-0.222610588,74.16563659
1.703,-0.232825986,74.16563659
1.704,-0.238572148,74.16563659
1.705,-0.23889138,74.16563659
1.706,-0.233464449,74.16563659
1.707,-0.222929819,74.16563659
1.708,-0.208245183,74.16563659
1.709,-0.190687466,74.16563659
1.71,-0.172172056,74.16563659
1.711,-0.154295108,74.16563659
1.712,-0.138652779,74.16563659
1.713,-0.127160455,74.16563659
1.714,-0.120775831,74.16563659
1.715,-0.119818137,74.16563659
1.716,-0.124606606,74.16563659
1.717,-0.134502773,74.16563659
1.718,-0.148229715,74.16563659
1.719,-0.164829738,74.16563659
1.72,-0.182387455,74.16563659
1.721,-0.199306709,74.16563659
1.722,-0.213991345,74.16563659
1.723,-0.224525975,74.16563659
1.724,-0.229952906,74.16563659
1.725,-0.229952906,74.16563659
1.726,-0.224206744,74.16563659
1.727,-0.213352883,74.16563659
1.728,-0.198668247,74.16563659
1.729,-0.18111053,74.16563659
1.73,-0.16259512,74.16563659
1.731,-0.145037403,74.16563659
1.732,-0.129714305,74.16563659
1.733,-0.118860444,74.16563659
1.734,-0.112475819,74.16563659
1.735,-0.112156588,74.16563659
1.736,-0.117264288,74.16563659
1.737,-0.127160455,74.16563659
1.738,-0.140887397,74.16563659
1.739,-0.156848958,74.16563659
1.74,-0.173448981,74.16563659
1.741,-0.189410542,74.16563659
1.742,-0.202499021,74.16563659
1.743,-0.211118264,74.16563659
1.744,-0.214629807,74.16563659
1.745,-0.212395189,74.16563659
1.746,-0.204414409,74.16563659
1.747,-0.191325929,74.16563659
1.748,-0.174406675,74.16563659
1.749,-0.155252802,74.16563659
1.75,-0.135779698,74.16563659
1.751,-0.117264288,74.16563659
1.752,-0.101941189,74.16563659
1.753,-0.090768097,74.16563659
1.754,-0.084383473,74.16563659
1.755,-0.08374501,74.16563659
1.756,-0.088533479,74.16563659
1.757,-0.098110415,74.16563659
1.758,-0.111837357,74.16563659
1.759,-0.127798918,74.16563659
1.76,-0.144718172,74.16563659
1.761,-0.160679733,74.16563659
1.762,-0.173448981,74.16563659
1.763,-0.182068224,74.16563659
1.764,-0.185579767,74.16563659
1.765,-0.183025917,74.16563659
1.766,-0.174725906,74.16563659
1.767,-0.161318195,74.16563659
1.768,-0.144079709,74.16563659
1.769,-0.124925837,74.16563659
1.77,-0.10481427,74.16563659
1.771,-0.085979629,74.16563659
1.772,-0.070018068,74.16563659
1.773,-0.058206513,74.16563659
1.774,-0.051502658,74.16563659
1.775,-0.050544964,74.16563659
1.776,-0.05469497,74.16563659
1.777,-0.063633444,74.16563659
1.778,-0.076083461,74.16563659
1.779,-0.090448866,74.16563659
1.78,-0.105133502,74.16563659
1.781,-0.118221981,74.16563659
1.782,-0.128756611,74.16563659
1.783,-0.134822004,74.16563659
1.784,-0.135779698,74.16563659
1.785,-0.131310461,74.16563659
1.786,-0.121414293,74.16563659
1.787,-0.106729658,74.16563659
1.788,-0.088214247,74.16563659
1.789,-0.068102681,74.16563659
1.79,-0.047671883,74.16563659
1.791,-0.028837242,74.16563659
1.792,-0.013194913,74.16563659
1.793,-0.002341051,74.16563659
1.794,0.003405111,74.16563659
1.795,0.003405111,74.16563659
1.796,-0.00202182,74.16563659
1.797,-0.011917988,74.16563659
1.798,-0.024687236,74.16563659
1.799,-0.039691103,74.16563659
1.8,-0.054375739,74.16563659
1.801,-0.06778345,74.16563659
1.802,-0.077679617,74.16563659
1.803,-0.083106548,74.16563659
1.804,-0.083106548,74.16563659
1.805,-0.077041155,74.16563659
1.806,-0.065548831,74.16563659
1.807,-0.049587271,74.16563659
1.808,-0.030114167,74.16563659
1.809,-0.009044907,74.16563659
1.81,0.011385891,74.16563659
1.811,0.030539764,74.16563659
1.812,0.046182093,74.16563659
1.813,0.057035954,74.16563659
1.814,0.062143654,74.16563659
1.815,0.061824422,74.16563659
1.816,0.056078261,74.16563659
1.817,0.045543631,74.16563659
1.818,0.031816688,74.16563659
1.819,0.015855128,74.16563659
1.82,0.000212798,74.16563659
1.821,-0.014152606,74.16563659
1.822,-0.02564493,74.16563659
1.823,-0.032348785,74.16563659
1.824,-0.03362571,74.16563659
1.825,-0.029475704,74.16563659
1.826,-0.020217999,74.16563659
1.827,-0.006171826,74.16563659
1.828,0.01106666,74.16563659
1.829,0.030220532,74.16563659
1.83,0.050012867,74.16563659
1.831,0.067889815,74.16563659
1.832,0.082574451,74.16563659
1.833,0.09278985,74.16563659
1.834,0.097578318,74.16563659
1.835,0.096620624,74.16563659
1.836,0.090874463,74.16563659
1.837,0.080659064,74.16563659
1.838,0.067570584,74.16563659
1.839,0.05320518,74.16563659
1.84,0.038520544,74.16563659
1.841,0.026070527,74.16563659
1.842,0.01649359,74.16563659
1.843,0.01106666,74.16563659
1.844,0.01106666,74.16563659
1.845,0.016174359,74.16563659
1.846,0.026070527,74.16563659
1.847,0.039797469,74.16563659
1.848,0.055759029,74.16563659
1.849,0.072997515,74.16563659
1.85,0.089597538,74.16563659
1.851,0.103962942,74.16563659
1.852,0.114816804,74.16563659
1.853,0.120562965,74.16563659
1.854,0.121201428,74.16563659
1.855,0.115774497,74.16563659
1.856,0.105239867,74.16563659
1.857,0.090874463,74.16563659
1.858,0.073635977,74.16563659
1.859,0.055120567,74.16563659
1.86,0.037243619,74.16563659
1.861,0.021282058,74.16563659
1.862,0.009151272,74.16563659
1.863,0.001808954,74.16563659
1.864,-0.000744895,74.16563659
1.865,0.002447417,74.16563659
1.866,0.010108966,74.16563659
1.867,0.022239752,74.16563659
1.868,0.036924388,74.16563659
1.869,0.052247486,74.16563659
1.87,0.067251353,74.16563659
1.871,0.079382139,74.16563659
1.872,0.088001382,74.16563659
1.873,0.091512925,74.16563659
1.874,0.089916769,74.16563659
1.875,0.082574451,74.16563659
1.876,0.070762896,74.16563659
1.877,0.054801336,74.16563659
1.878,0.036605157,74.16563659
1.879,0.017451284,74.16563659
1.88,-0.000425664,74.16563659
1.881,-0.016067993,74.16563659
1.882,-0.028198779,74.16563659
1.883,-0.035221866,74.16563659
1.884,-0.036818022,74.16563659
1.885,-0.032987248,74.16563659
1.886,-0.024368005,74.16563659
1.887,-0.012237219,74.16563659
1.888,0.002447417,74.16563659
1.889,0.017132053,74.16563659
1.89,0.030858995,74.16563659
1.891,0.042032087,74.16563659
1.892,0.049055174,74.16563659
1.893,0.050970561,74.16563659
1.894,0.047459018,74.16563659
1.895,0.038201313,74.16563659
1.896,0.023835908,74.16563659
1.897,0.006278191,74.16563659
1.898,-0.014152606,74.16563659
1.899,-0.035221866,74.16563659
1.9,-0.055014201,74.16563659
1.901,-0.072252687,74.16563659
1.902,-0.085341166,74.16563659
1.903,-0.093002716,74.16563659
1.904,-0.095237334,74.16563659
1.905,-0.091406559,74.16563659
1.906,-0.082787317,74.16563659
1.907,-0.070018068,74.16563659
1.908,-0.05469497,74.16563659
1.909,-0.038733409,74.16563659
1.91,-0.023729543,74.16563659
1.911,-0.011598756,74.16563659
1.912,-0.003617976,74.16563659
1.913,-0.000744895,74.16563659
1.914,-0.003298745,74.16563659
1.915,-0.011598756,74.16563659
1.916,-0.024048774,74.16563659
1.917,-0.040329566,74.16563659
1.918,-0.058206513,74.16563659
1.919,-0.076721924,74.16563659
1.92,-0.093960409,74.16563659
1.921,-0.108325814,74.16563659
1.922,-0.118541213,74.16563659
1.923,-0.123648912,74.16563659
1.924,-0.123010449,74.16563659
1.925,-0.116945056,74.16563659
1.926,-0.106091195,74.16563659
1.927,-0.091725791,74.16563659
1.928,-0.075125768,74.16563659
1.929,-0.058206513,74.16563659
1.93,-0.042564184,74.16563659
1.931,-0.030114167,74.16563659
1.932,-0.022133386,74.16563659
1.933,-0.019260306,74.16563659
1.934,-0.022133386,74.16563659
1.935,-0.030752629,74.16563659
1.936,-0.043521878,74.16563659
1.937,-0.059802669,74.16563659
1.938,-0.077679617,74.16563659
1.939,-0.095556565,74.16563659
1.94,-0.111837357,74.16563659
1.941,-0.125245068,74.16563659
1.942,-0.133864311,74.16563659
1.943,-0.137056623,74.16563659
1.944,-0.134502773,74.16563659
1.945,-0.126521993,74.16563659
1.946,-0.113433513,74.16563659
1.947,-0.09683349,74.16563659
1.948,-0.077998849,74.16563659
1.949,-0.058525745,74.16563659
1.95,-0.040648797,74.16563659
1.951,-0.025964161,74.16563659
1.952,-0.015748762,74.16563659
1.953,-0.010960294,74.16563659
1.954,-0.011598756,74.16563659
1.955,-0.018302612,74.16563659
1.956,-0.029156473,74.16563659
1.957,-0.043841109,74.16563659
1.958,-0.060121901,74.16563659
1.959,-0.076721924,74.16563659
1.96,-0.092045022,74.16563659
1.961,-0.104175808,74.16563659
1.962,-0.112156588,74.16563659
1.963,-0.115029669,74.16563659
1.964,-0.112475819,74.16563659
1.965,-0.104495039,74.16563659
1.966,-0.092045022,74.16563659
1.967,-0.076402693,74.16563659
1.968,-0.059164207,74.16563659
1.969,-0.041925722,74.16563659
1.97,-0.026283392,74.16563659
1.971,-0.014152606,74.16563659
1.972,-0.006491057,74.16563659
1.973,-0.003937207,74.16563659
1.974,-0.007129519,74.16563659
1.975,-0.015429531,74.16563659
1.976,-0.028198779,74.16563659
1.977,-0.043841109,74.16563659
1.978,-0.061079594,74.16563659
1.979,-0.07831808,74.16563659
1.98,-0.093321947,74.16563659
1.981,-0.105133502,74.16563659
1.982,-0.112156588,74.16563659
1.983,-0.113752744,74.16563659
1.984,-0.10992197,74.16563659
1.985,-0.100983496,74.16563659
1.986,-0.087575785,74.16563659
1.987,-0.071294993,74.16563659
1.988,-0.053737276,74.16563659
1.989,-0.036498791,74.16563659
1.99,-0.021175693,74.16563659
1.991,-0.009364138,74.16563659
1.992,-0.00202182,74.16563659
1.993,-0.000106433,74.16563659
1.994,-0.003937207,74.16563659
1.995,-0.013194913,74.16563659
1.996,-0.026602623,74.16563659
1.997,-0.042883415,74.16563659
1.998,-0.060441132,74.16563659
1.999,-0.077679617,74.16563659
2,-0.093002716,74.16563659
2.001,-0.104495039,74.16563659
2.002,-0.111198895,74.16563659
2.003,-0.112156588,74.16563659
2.004,-0.107687351,74.16563659
2.005,-0.098110415,74.16563659
2.006,-0.084064242,74.16563659
2.007,-0.067144987,74.16563659
2.008,-0.048948808,74.16563659
2.009,-0.03107186,74.16563659
2.01,-0.015748762,74.16563659
2.011,-0.003937207,74.16563659
2.012,0.003085879,74.16563659
2.013,0.004362804,74.16563659
2.014,0.000212798,74.16563659
2.015,-0.009044907,74.16563659
2.016,-0.022452618,74.16563659
2.017,-0.038414178,74.16563659
2.018,-0.055652664,74.16563659
2.019,-0.072252687,74.16563659
2.02,-0.086618091,74.16563659
2.021,-0.097471953,74.16563659
2.022,-0.103218114,74.16563659
2.023,-0.103856577,74.16563659
2.024,-0.098429646,74.16563659
2.025,-0.088214247,74.16563659
2.026,-0.073848843,74.16563659
2.027,-0.056610357,74.16563659
2.028,-0.038414178,74.16563659
2.029,-0.02053723,74.16563659
2.03,-0.005214132,74.16563659
2.031,0.00595896,74.16563659
2.032,0.011705122,74.16563659
2.033,0.011705122,74.16563659
2.034,0.006278191,74.16563659
2.035,-0.003937207,74.16563659
2.036,-0.018621843,74.16563659
2.037,-0.035860329,74.16563659
2.038,-0.054056508,74.16563659
2.039,-0.071614224,74.16563659
2.04,-0.086937323,74.16563659
2.041,-0.098429646,74.16563659
2.042,-0.105133502,74.16563659
2.043,-0.106091195,74.16563659
2.044,-0.101941189,74.16563659
2.045,-0.092683484,74.16563659
2.046,-0.079595005,74.16563659
2.047,-0.063952675,74.16563659
2.048,-0.047352652,74.16563659
2.049,-0.031710323,74.16563659
2.05,-0.018621843,74.16563659
2.051,-0.009044907,74.16563659
2.052,-0.003937207,74.16563659
2.053,-0.00457567,74.16563659
2.054,-0.010321832,74.16563659
2.055,-0.021175693,74.16563659
2.056,-0.035541097,74.16563659
2.057,-0.05214112,74.16563659
2.058,-0.069698837,74.16563659
2.059,-0.08629886,74.16563659
2.06,-0.100025802,74.16563659
2.061,-0.10992197,74.16563659
2.062,-0.114391207,74.16563659
2.063,-0.113433513,74.16563659
2.064,-0.107048889,74.16563659
2.065,-0.095556565,74.16563659
2.066,-0.080552698,74.16563659
2.067,-0.063633444,74.16563659
2.068,-0.046075727,74.16563659
2.069,-0.029794936,74.16563659
2.07,-0.016706456,74.16563659
2.071,-0.007767982,74.16563659
2.072,-0.003937207,74.16563659
2.073,-0.005852595,74.16563659
2.074,-0.012875681,74.16563659
2.075,-0.024687236,74.16563659
2.076,-0.039691103,74.16563659
2.077,-0.056610357,74.16563659
2.078,-0.073848843,74.16563659
2.079,-0.089491172,74.16563659
2.08,-0.102579652,74.16563659
2.081,-0.111198895,74.16563659
2.082,-0.114710438,74.16563659
2.083,-0.112475819,74.16563659
2.084,-0.105133502,74.16563659
2.085,-0.092683484,74.16563659
2.086,-0.076721924,74.16563659
2.087,-0.058525745,74.16563659
2.088,-0.040329566,74.16563659
2.089,-0.023410311,74.16563659
2.09,-0.009683369,74.16563659
2.091,-0.000425664,74.16563659
2.092,0.003405111,74.16563659
2.093,0.001808954,74.16563659
2.094,-0.005533363,74.16563659
2.095,-0.017344918,74.16563659
2.096,-0.032348785,74.16563659
2.097,-0.049268039,74.16563659
2.098,-0.066506525,74.16563659
2.099,-0.082148854,74.16563659
2.1,-0.094598872,74.16563659
2.101,-0.102579652,74.16563659
2.102,-0.105133502,74.16563659
2.103,-0.102260421,74.16563659
2.104,-0.093960409,74.16563659
2.105,-0.080871929,74.16563659
2.106,-0.064591138,74.16563659
2.107,-0.04671419,74.16563659
2.108,-0.028518011,74.16563659
2.109,-0.011598756,74.16563659
2.11,0.001808954,74.16563659
2.111,0.010428197,74.16563659
2.112,0.013939741,74.16563659
2.113,0.011705122,74.16563659
2.114,0.004362804,74.16563659
2.115,-0.007767982,74.16563659
2.116,-0.02309108,74.16563659
2.117,-0.039691103,74.16563659
2.118,-0.056610357,74.16563659
2.119,-0.071294993,74.16563659
2.12,-0.083106548,74.16563659
2.121,-0.090129635,74.16563659
2.122,-0.092045022,74.16563659
2.123,-0.088533479,74.16563659
2.124,-0.079914236,74.16563659
2.125,-0.067144987,74.16563659
2.126,-0.051183427,74.16563659
2.127,-0.033944941,74.16563659
2.128,-0.016706456,74.16563659
2.129,-0.001383358,74.16563659
2.13,0.010108966,74.16563659
2.131,0.017132053,74.16563659
2.132,0.01904744,74.16563659
2.133,0.015216665,74.16563659
2.134,0.006278191,74.16563659
2.135,-0.007129519,74.16563659
2.136,-0.023410311,74.16563659
2.137,-0.041287259,74.16563659
2.138,-0.058844976,74.16563659
2.139,-0.074487305,74.16563659
2.14,-0.086618091,74.16563659
2.141,-0.093641178,74.16563659
2.142,-0.095556565,74.16563659
2.143,-0.091725791,74.16563659
2.144,-0.082468086,74.16563659
2.145,-0.069060375,74.16563659
2.146,-0.05214112,74.16563659
2.147,-0.034264173,74.16563659
2.148,-0.016387225,74.16563659
2.149,-0.000744895,74.16563659
2.15,0.010747428,74.16563659
2.151,0.017770515,74.16563659
2.152,0.019366671,74.16563659
2.153,0.015216665,74.16563659
2.154,0.006278191,74.16563659
2.155,-0.006810288,74.16563659
2.156,-0.022771849,74.16563659
2.157,-0.040010334,74.16563659
2.158,-0.056929589,74.16563659
2.159,-0.071294993,74.16563659
2.16,-0.082148854,74.16563659
2.161,-0.088214247,74.16563659
2.162,-0.08885271,74.16563659
2.163,-0.084383473,74.16563659
2.164,-0.074806536,74.16563659
2.165,-0.061718057,74.16563659
2.166,-0.045437265,74.16563659
2.167,-0.028518011,74.16563659
2.168,-0.011917988,74.16563659
2.169,0.002447417,74.16563659
2.17,0.012662816,74.16563659
2.171,0.018408977,74.16563659
2.172,0.018728209,74.16563659
2.173,0.013620509,74.16563659
2.174,0.003724342,74.16563659
2.175,-0.010321832,74.16563659
2.176,-0.026602623,74.16563659
2.177,-0.04416034,74.16563659
2.178,-0.060441132,74.16563659
2.179,-0.074487305,74.16563659
2.18,-0.084383473,74.16563659
2.181,-0.089491172,74.16563659
2.182,-0.088533479,74.16563659
2.183,-0.081829623,74.16563659
2.184,-0.070018068,74.16563659
2.185,-0.054056508,74.16563659
2.186,-0.035860329,74.16563659
2.187,-0.016706456,74.16563659
2.188,0.001170492,74.16563659
2.189,0.016174359,74.16563659
2.19,0.02702822,74.16563659
2.191,0.033093613,74.16563659
2.192,0.033412844,74.16563659
2.193,0.028305145,74.16563659
2.194,0.018089746,74.16563659
2.195,0.004362804,74.16563659
2.196,-0.01255645,74.16563659
2.197,-0.030114167,74.16563659
2.198,-0.047033421,74.16563659
2.199,-0.061718057,74.16563659
2.2,-0.071933456,74.16563659
2.201,-0.077360386,74.16563659
2.202,-0.077041155,74.16563659
2.203,-0.071294993,74.16563659
2.204,-0.060441132,74.16563659
2.205,-0.045756496,74.16563659
2.206,-0.029156473,74.16563659
2.207,-0.011598756,74.16563659
2.208,0.004682035,74.16563659
2.209,0.018089746,74.16563659
2.21,0.027666683,74.16563659
2.211,0.03213592,74.16563659
2.212,0.031178226,74.16563659
2.213,0.024474371,74.16563659
2.214,0.013301278,74.16563659
2.215,-0.001383358,74.16563659
2.216,-0.018302612,74.16563659
2.217,-0.035541097,74.16563659
2.218,-0.051821889,74.16563659
2.219,-0.0652296,74.16563659
2.22,-0.074487305,74.16563659
2.221,-0.078637311,74.16563659
2.222,-0.077041155,74.16563659
2.223,-0.069698837,74.16563659
2.224,-0.05724882,74.16563659
2.225,-0.041287259,74.16563659
2.226,-0.022771849,74.16563659
2.227,-0.003937207,74.16563659
2.228,0.013620509,74.16563659
2.229,0.028305145,74.16563659
2.23,0.038839775,74.16563659
2.231,0.043947474,74.16563659
2.232,0.043309012,74.16563659
2.233,0.037243619,74.16563659
2.234,0.026070527,74.16563659
2.235,0.011385891,74.16563659
2.236,-0.004894901,74.16563659
2.237,-0.022133386,74.16563659
2.238,-0.038094947,74.16563659
2.239,-0.050864196,74.16563659
2.24,-0.059164207,74.16563659
2.241,-0.062037288,74.16563659
2.242,-0.059164207,74.16563659
2.243,-0.050544964,74.16563659
2.244,-0.037456485,74.16563659
2.245,-0.02053723,74.16563659
2.246,-0.001702589,74.16563659
2.247,0.017451284,74.16563659
2.248,0.035328232,74.16563659
2.249,0.05065133,74.16563659
2.25,0.062143654,74.16563659
2.251,0.068528278,74.16563659
2.252,0.069485971,74.16563659
2.253,0.065335966,74.16563659
2.254,0.056716723,74.16563659
2.255,0.044585937,74.16563659
2.256,0.030539764,74.16563659
2.257,0.015855128,74.16563659
2.258,0.003405111,74.16563659
2.259,-0.006810288,74.16563659
2.26,-0.01255645,74.16563659
2.261,-0.013194913,74.16563659
2.262,-0.008406444,74.16563659
2.263,0.001489723,74.16563659
2.264,0.015535897,74.16563659
2.265,0.032774382,74.16563659
2.266,0.051928255,74.16563659
2.267,0.070762896,74.16563659
2.268,0.088320613,74.16563659
2.269,0.102366786,74.16563659
2.27,0.112262954,74.16563659
2.271,0.117051422,74.16563659
2.272,0.11641296,74.16563659
2.273,0.110666798,74.16563659
2.274,0.10077063,74.16563659
2.275,0.088001382,74.16563659
2.276,0.073955208,74.16563659
2.277,0.060228266,74.16563659
2.278,0.04809748,74.16563659
2.279,0.039478237,74.16563659
2.28,0.035328232,74.16563659
2.281,0.036924388,74.16563659
2.282,0.043947474,74.16563659
2.283,0.056397492,74.16563659
2.284,0.072997515,74.16563659
2.285,0.092470619,74.16563659
2.286,0.112901416,74.16563659
2.287,0.13237452,74.16563659
2.288,0.149293774,74.16563659
2.289,0.162063023,74.16563659
2.29,0.169724572,74.16563659
2.291,0.171320728,74.16563659
2.292,0.167170722,74.16563659
2.293,0.157274555,74.16563659
2.294,0.14290915,74.16563659
2.295,0.125032202,74.16563659
2.296,0.105239867,74.16563659
2.297,0.085447532,74.16563659
2.298,0.067570584,74.16563659
2.299,0.052885948,74.16563659
2.3,0.042989781,74.16563659
2.301,0.038201313,74.16563659
2.302,0.038839775,74.16563659
2.303,0.044905168,74.16563659
2.304,0.054801336,74.16563659
2.305,0.067570584,74.16563659
2.306,0.081297526,74.16563659
2.307,0.094705237,74.16563659
2.308,0.10587833,74.16563659
2.309,0.112901416,74.16563659
2.31,0.115136035,74.16563659
2.311,0.111624491,74.16563659
2.312,0.102366786,74.16563659
2.313,0.088001382,74.16563659
2.314,0.06916674,74.16563659
2.315,0.047778249,74.16563659
2.316,0.025112833,74.16563659
2.317,0.003405111,74.16563659
2.318,-0.016387225,74.16563659
2.319,-0.032348785,74.16563659
2.32,-0.043202646,74.16563659
2.321,-0.048310346,74.16563659
2.322,-0.047352652,74.16563659
2.323,-0.040968028,74.16563659
2.324,-0.030114167,74.16563659
2.325,-0.016067993,74.16563659
2.326,-0.000744895,74.16563659
2.327,0.013939741,74.16563659
2.328,0.026708989,74.16563659
2.329,0.035966694,74.16563659
2.33,0.0401167,74.16563659
2.331,0.038839775,74.16563659
2.332,0.03213592,74.16563659
2.333,0.020005134,74.16563659
2.334,0.004362804,74.16563659
2.335,-0.014152606,74.16563659
2.336,-0.033306479,74.16563659
2.337,-0.051821889,74.16563659
2.338,-0.06778345,74.16563659
2.339,-0.079914236,74.16563659
2.34,-0.086618091,74.16563659
2.341,-0.087895016,74.16563659
2.342,-0.083425779,74.16563659
2.343,-0.074168074,74.16563659
2.344,-0.060760363,74.16563659
2.345,-0.044479571,74.16563659
2.346,-0.027241086,74.16563659
2.347,-0.010641063,74.16563659
2.348,0.003724342,74.16563659
2.349,0.013620509,74.16563659
2.35,0.018408977,74.16563659
2.351,0.017770515,74.16563659
2.352,0.011385891,74.16563659
2.353,0.000212798,74.16563659
2.354,-0.014791069,74.16563659
2.355,-0.032348785,74.16563659
2.356,-0.050544964,74.16563659
2.357,-0.068102681,74.16563659
2.358,-0.082787317,74.16563659
2.359,-0.093321947,74.16563659
2.36,-0.098748877,74.16563659
2.361,-0.098429646,74.16563659
2.362,-0.092683484,74.16563659
2.363,-0.081510392,74.16563659
2.364,-0.066187294,74.16563659
2.365,-0.048629577,74.16563659
2.366,-0.030114167,74.16563659
2.367,-0.01255645,74.16563659
2.368,0.002128186,74.16563659
2.369,0.012662816,74.16563659
2.37,0.018089746,74.16563659
2.371,0.017770515,74.16563659
2.372,0.012024353,74.16563659
2.373,0.001808954,74.16563659
2.374,-0.012875681,74.16563659
2.375,-0.029475704,74.16563659
2.376,-0.047033421,74.16563659
2.377,-0.063633444,74.16563659
2.378,-0.077679617,74.16563659
2.379,-0.087895016,74.16563659
2.38,-0.093002716,74.16563659
2.381,-0.092683484,74.16563659
2.382,-0.086937323,74.16563659
2.383,-0.076721924,74.16563659
2.384,-0.062994982,74.16563659
2.385,-0.047671883,74.16563659
2.386,-0.032348785,74.16563659
2.387,-0.018941074,74.16563659
2.388,-0.009044907,74.16563659
2.389,-0.004256439,74.16563659
2.39,-0.005214132,74.16563659
2.391,-0.01255645,74.16563659
2.392,-0.025964161,74.16563659
2.393,-0.04416034,74.16563659
2.394,-0.066187294,74.16563659
2.395,-0.089810403,74.16563659
2.396,-0.114071976,74.16563659
2.397,-0.13641816,74.16563659
2.398,-0.155252802,74.16563659
2.399,-0.168660513,74.16563659
2.4,-0.175364368,74.16563659
2.401,-0.174406675,74.16563659
2.402,-0.166106663,74.16563659
2.403,-0.150464334,74.16563659
2.404,-0.129075843,74.16563659
2.405,-0.102579652,74.16563659
2.406,-0.072252687,74.16563659
2.407,-0.039371872,74.16563659
2.408,-0.005214132,74.16563659
2.409,0.02958207,74.16563659
2.41,0.064697503,74.16563659
2.411,0.100451399,74.16563659
2.412,0.136524526,74.16563659
2.413,0.173874578,74.16563659
2.414,0.213140017,74.16563659
2.415,0.255278537,74.16563659
2.416,0.300609369,74.16563659
2.417,0.349451744,74.16563659
2.418,0.402444126,74.16563659
2.419,0.459905744,74.16563659
2.42,0.521836599,74.16563659
2.421,0.587598229,74.16563659
2.422,0.656232939,74.16563659
2.423,0.724548419,74.16563659
2.424,0.789990817,74.16563659
2.425,0.848410129,74.16563659
2.426,0.896933273,74.16563659
2.427,0.932048707,74.16563659
2.428,0.951841042,74.16563659
2.429,0.954714123,74.16563659
2.43,0.939710256,74.16563659
2.431,0.907787135,74.16563659
2.432,0.859902453,74.16563659
2.433,0.797971598,74.16563659
2.434,0.724548419,74.16563659
2.435,0.642505997,74.16563659
2.436,0.555355876,74.16563659
2.437,0.466290368,73.17073171
2.438,0.378501785,73.17073171
2.439,0.294863207,73.17073171
2.44,0.218247716,73.17073171
2.441,0.150251468,73.17073171
2.442,0.091512925,73.17073171
2.443,0.042989781,73.17073171
2.444,0.004043573,73.17073171
2.445,-0.026921855,73.17073171
2.446,-0.050864196,73.17073171
2.447,-0.069379606,73.17073171
2.448,-0.084064242,73.17073171
2.449,-0.09683349,73.17073171
2.45,-0.108325814,73.17073171
2.451,-0.1204566,73.17073171
2.452,-0.132587386,73.17073171
2.453,-0.145356634,73.17073171
2.454,-0.15748742,73.17073171
2.455,-0.168979744,73.17073171
2.456,-0.178237449,73.17073171
2.457,-0.184302842,73.17073171
2.458,-0.186537461,73.17073171
2.459,-0.184302842,73.17073171
2.46,-0.177279756,73.17073171
2.461,-0.165468201,73.17073171
2.462,-0.14950664,73.17073171
2.463,-0.130352767,73.17073171
2.464,-0.109602739,73.17073171
2.465,-0.08885271,73.17073171
2.466,-0.069379606,73.17073171
2.467,-0.053098814,73.17073171
2.468,-0.041287259,73.17073171
2.469,-0.034902635,73.17073171
2.47,-0.034583404,73.17073171
2.471,-0.040329566,73.17073171
2.472,-0.051502658,73.17073171
2.473,-0.067144987,73.17073171
2.474,-0.085660398,73.17073171
2.475,-0.105133502,73.17073171
2.476,-0.124287374,73.17073171
2.477,-0.140887397,73.17073171
2.478,-0.153337415,73.17073171
2.479,-0.160679733,73.17073171
2.48,-0.162275889,73.17073171
2.481,-0.15748742,73.17073171
2.482,-0.147591253,73.17073171
2.483,-0.133225848,73.17073171
2.484,-0.116306594,73.17073171
2.485,-0.098429646,73.17073171
2.486,-0.081191161,73.17073171
2.487,-0.066825756,73.17073171
2.488,-0.055971895,73.17073171
2.489,-0.050225733,73.17073171
2.49,-0.049906502,73.17073171
2.491,-0.055014201,73.17073171
2.492,-0.0652296,73.17073171
2.493,-0.079275773,73.17073171
2.494,-0.095875796,73.17073171
2.495,-0.113114282,73.17073171
2.496,-0.129714305,73.17073171
2.497,-0.143760478,73.17073171
2.498,-0.153656646,73.17073171
2.499,-0.158764345,73.17073171
2.5,-0.157806652,73.17073171
2.501,-0.151422027,73.17073171
2.502,-0.139929704,73.17073171
2.503,-0.123968143,73.17073171
2.504,-0.105771964,73.17073171
2.505,-0.08629886,73.17073171
2.506,-0.068102681,73.17073171
2.507,-0.05214112,73.17073171
2.508,-0.040329566,73.17073171
2.509,-0.033944941,73.17073171
2.51,-0.032987248,73.17073171
2.511,-0.037775716,73.17073171
2.512,-0.047352652,73.17073171
2.513,-0.060760363,73.17073171
2.514,-0.076402693,73.17073171
2.515,-0.092683484,73.17073171
2.516,-0.108006583,73.17073171
2.517,-0.120775831,73.17073171
2.518,-0.129714305,73.17073171
2.519,-0.133864311,73.17073171
2.52,-0.132268155,73.17073171
2.521,-0.125564299,73.17073171
2.522,-0.114391207,73.17073171
2.523,-0.099068109,73.17073171
2.524,-0.081510392,73.17073171
2.525,-0.062994982,73.17073171
2.526,-0.046075727,73.17073171
2.527,-0.031710323,73.17073171
2.528,-0.021494924,73.17073171
2.529,-0.016706456,73.17073171
2.53,-0.017664149,73.17073171
2.531,-0.024368005,73.17073171
2.532,-0.035860329,73.17073171
2.533,-0.051183427,73.17073171
2.534,-0.068421912,73.17073171
2.535,-0.085979629,73.17073171
2.536,-0.102260421,73.17073171
2.537,-0.115668132,73.17073171
2.538,-0.124287374,73.17073171
2.539,-0.127798918,73.17073171
2.54,-0.125564299,73.17073171
2.541,-0.11790275,73.17073171
2.542,-0.105133502,73.17073171
2.543,-0.08885271,73.17073171
2.544,-0.070337299,73.17073171
2.545,-0.051502658,73.17073171
2.546,-0.033944941,73.17073171
2.547,-0.019260306,73.17073171
2.548,-0.008725676,73.17073171
2.549,-0.003298745,73.17073171
2.55,-0.003617976,73.17073171
2.551,-0.009364138,73.17073171
2.552,-0.020217999,73.17073171
2.553,-0.034264173,73.17073171
2.554,-0.050544964,73.17073171
2.555,-0.067144987,73.17073171
2.556,-0.082148854,73.17073171
2.557,-0.09427964,73.17073171
2.558,-0.101941189,73.17073171
2.559,-0.104175808,73.17073171
2.56,-0.100983496,73.17073171
2.561,-0.092364253,73.17073171
2.562,-0.078637311,73.17073171
2.563,-0.062037288,73.17073171
2.564,-0.043521878,73.17073171
2.565,-0.025006467,73.17073171
2.566,-0.008087213,73.17073171
2.567,0.005320498,73.17073171
2.568,0.014258972,73.17073171
2.569,0.017770515,73.17073171
2.57,0.015855128,73.17073171
2.571,0.00851281,73.17073171
2.572,-0.003298745,73.17073171
2.573,-0.018941074,73.17073171
2.574,-0.03617956,73.17073171
2.575,-0.053737276,73.17073171
2.576,-0.069379606,73.17073171
2.577,-0.081829623,73.17073171
2.578,-0.089810403,73.17073171
2.579,-0.092364253,73.17073171
2.58,-0.089171941,73.17073171
2.581,-0.080233467,73.17073171
2.582,-0.066825756,73.17073171
2.583,-0.049906502,73.17073171
2.584,-0.03107186,73.17073171
2.585,-0.011917988,73.17073171
2.586,0.005639729,73.17073171
2.587,0.019685902,73.17073171
2.588,0.02958207,73.17073171
2.589,0.034051307,73.17073171
2.59,0.032774382,73.17073171
2.591,0.026708989,73.17073171
2.592,0.016174359,73.17073171
2.593,0.002766648,73.17073171
2.594,-0.01255645,73.17073171
2.595,-0.027560317,73.17073171
2.596,-0.040968028,73.17073171
2.597,-0.051183427,73.17073171
2.598,-0.056929589,73.17073171
2.599,-0.05724882,73.17073171
2.6,-0.051821889,73.17073171
2.601,-0.041287259,73.17073171
2.602,-0.026283392,73.17073171
2.603,-0.008406444,73.17073171
2.604,0.010428197,73.17073171
2.605,0.029262839,73.17073171
2.606,0.046182093,73.17073171
2.607,0.059589804,73.17073171
2.608,0.068528278,73.17073171
2.609,0.07172059,73.17073171
2.61,0.069805203,73.17073171
2.611,0.062462885,73.17073171
2.612,0.051289792,73.17073171
2.613,0.036924388,73.17073171
2.614,0.02160129,73.17073171
2.615,0.006597423,73.17073171
2.616,-0.005852595,73.17073171
2.617,-0.014791069,73.17073171
2.618,-0.018941074,73.17073171
2.619,-0.017664149,73.17073171
2.62,-0.010321832,73.17073171
2.621,0.002128186,73.17073171
2.622,0.018408977,73.17073171
2.623,0.037882081,73.17073171
2.624,0.058312879,73.17073171
2.625,0.078424445,73.17073171
2.626,0.096301393,73.17073171
2.627,0.110666798,73.17073171
2.628,0.119924503,73.17073171
2.629,0.123755277,73.17073171
2.63,0.121520659,73.17073171
2.631,0.114178341,73.17073171
2.632,0.102686017,73.17073171
2.633,0.088320613,73.17073171
2.634,0.072359052,73.17073171
2.635,0.057035954,73.17073171
2.636,0.043947474,73.17073171
2.637,0.034370538,73.17073171
2.638,0.029901301,73.17073171
2.639,0.030539764,73.17073171
2.64,0.036924388,73.17073171
2.641,0.048735943,73.17073171
2.642,0.064378272,73.17073171
2.643,0.083212914,73.17073171
2.644,0.102686017,73.17073171
2.645,0.121520659,73.17073171
2.646,0.138120682,73.17073171
2.647,0.150889931,73.17073171
2.648,0.158870711,73.17073171
2.649,0.161424561,73.17073171
2.65,0.15855148,73.17073171
2.651,0.150889931,73.17073171
2.652,0.139078376,73.17073171
2.653,0.125032202,73.17073171
2.654,0.109709104,73.17073171
2.655,0.095024468,73.17073171
2.656,0.082574451,73.17073171
2.657,0.073955208,73.17073171
2.658,0.070124434,73.17073171
2.659,0.07172059,73.17073171
2.66,0.078743677,73.17073171
2.661,0.090236,73.17073171
2.662,0.105559098,73.17073171
2.663,0.123436046,73.17073171
2.664,0.141632225,73.17073171
2.665,0.158870711,73.17073171
2.666,0.173236115,73.17073171
2.667,0.183132283,73.17073171
2.668,0.188239982,73.17073171
2.669,0.18760152,73.17073171
2.67,0.181536127,73.17073171
2.671,0.170682266,73.17073171
2.672,0.15599763,73.17073171
2.673,0.139397607,73.17073171
2.674,0.12183989,73.17073171
2.675,0.105559098,73.17073171
2.676,0.091832156,73.17073171
2.677,0.081935989,73.17073171
2.678,0.077147521,73.17073171
2.679,0.078105214,73.17073171
2.68,0.084170607,73.17073171
2.681,0.095024468,73.17073171
2.682,0.109389873,73.17073171
2.683,0.126309127,73.17073171
2.684,0.143228381,73.17073171
2.685,0.158870711,73.17073171
2.686,0.171320728,73.17073171
2.687,0.17962074,73.17073171
2.688,0.182174589,73.17073171
2.689,0.179301508,73.17073171
2.69,0.171001497,73.17073171
2.691,0.158232248,73.17073171
2.692,0.141951457,73.17073171
2.693,0.123436046,73.17073171
2.694,0.104282174,73.17073171
2.695,0.086405226,73.17073171
2.696,0.071082127,73.17073171
2.697,0.059909035,73.17073171
2.698,0.053843642,73.17073171
2.699,0.053524411,73.17073171
2.7,0.05863211,73.17073171
2.701,0.068209047,73.17073171
2.702,0.080978295,73.17073171
2.703,0.095662931,73.17073171
2.704,0.110347567,73.17073171
2.705,0.123436046,73.17073171
2.706,0.133332214,73.17073171
2.707,0.138759144,73.17073171
2.708,0.139078376,73.17073171
2.709,0.133651445,73.17073171
2.71,0.123116815,73.17073171
2.711,0.107474486,73.17073171
2.712,0.088959075,73.17073171
2.713,0.068528278,73.17073171
2.714,0.048416711,73.17073171
2.715,0.029901301,73.17073171
2.716,0.014578203,73.17073171
2.717,0.004362804,73.17073171
2.718,-0.000425664,73.17073171
2.719,0.00053203,73.17073171
2.72,0.006597423,73.17073171
2.721,0.017770515,73.17073171
2.722,0.03213592,73.17073171
2.723,0.048416711,73.17073171
2.724,0.064697503,73.17073171
2.725,0.079062908,73.17073171
2.726,0.090236,73.17073171
2.727,0.096301393,73.17073171
2.728,0.096939856,73.17073171
2.729,0.091832156,73.17073171
2.73,0.080978295,73.17073171
2.731,0.065655197,73.17073171
2.732,0.046820555,73.17073171
2.733,0.026389758,73.17073171
2.734,0.00595896,73.17073171
2.735,-0.012875681,73.17073171
2.736,-0.028837242,73.17073171
2.737,-0.040329566,73.17073171
2.738,-0.046075727,73.17073171
2.739,-0.046075727,73.17073171
2.74,-0.040329566,73.17073171
2.741,-0.029794936,73.17073171
2.742,-0.015429531,73.17073171
2.743,0.00053203,73.17073171
2.744,0.01649359,73.17073171
2.745,0.030858995,73.17073171
2.746,0.042351318,73.17073171
2.747,0.049374405,73.17073171
2.748,0.050970561,73.17073171
2.749,0.047459018,73.17073171
2.75,0.038520544,73.17073171
2.751,0.025751295,73.17073171
2.752,0.009470504,73.17073171
2.753,-0.007448751,73.17073171
2.754,-0.025006467,73.17073171
2.755,-0.040329566,73.17073171
2.756,-0.052460352,73.17073171
2.757,-0.059802669,73.17073171
2.758,-0.061718057,73.17073171
2.759,-0.058206513,73.17073171
2.76,-0.049268039,73.17073171
2.761,-0.03617956,73.17073171
2.762,-0.020217999,73.17073171
2.763,-0.002979514,73.17073171
2.764,0.013939741,73.17073171
2.765,0.028943607,73.17073171
2.766,0.040435931,73.17073171
2.767,0.047139787,73.17073171
2.768,0.048416711,73.17073171
2.769,0.043947474,73.17073171
2.77,0.034689769,73.17073171
2.771,0.020962827,73.17073171
2.772,0.005001267,73.17073171
2.773,-0.01255645,73.17073171
2.774,-0.029475704,73.17073171
2.775,-0.044798803,73.17073171
2.776,-0.056291126,73.17073171
2.777,-0.062994982,73.17073171
2.778,-0.063952675,73.17073171
2.779,-0.059164207,73.17073171
2.78,-0.048948808,73.17073171
2.781,-0.034583404,73.17073171
2.782,-0.017025687,73.17073171
2.783,0.001489723,73.17073171
2.784,0.019366671,73.17073171
2.785,0.035328232,73.17073171
2.786,0.047459018,73.17073171
2.787,0.054801336,73.17073171
2.788,0.056716723,73.17073171
2.789,0.052566717,73.17073171
2.79,0.042989781,73.17073171
2.791,0.029262839,73.17073171
2.792,0.012662816,73.17073171
2.793,-0.004894901,73.17073171
2.794,-0.022133386,73.17073171
2.795,-0.037137253,73.17073171
2.796,-0.048310346,73.17073171
2.797,-0.055014201,73.17073171
2.798,-0.055971895,73.17073171
2.799,-0.051821889,73.17073171
2.8,-0.042244953,73.17073171
2.801,-0.028837242,73.17073171
2.802,-0.013194913,73.17073171
2.803,0.004043573,73.17073171
2.804,0.020005134,73.17073171
2.805,0.033732076,73.17073171
2.806,0.043947474,73.17073171
2.807,0.049374405,73.17073171
2.808,0.049055174,73.17073171
2.809,0.043628243,73.17073171
2.81,0.033412844,73.17073171
2.811,0.019366671,73.17073171
2.812,0.003085879,73.17073171
2.813,-0.014152606,73.17073171
2.814,-0.030752629,73.17073171
2.815,-0.044798803,73.17073171
2.816,-0.055014201,73.17073171
2.817,-0.060441132,73.17073171
2.818,-0.060121901,73.17073171
2.819,-0.054375739,73.17073171
2.82,-0.04416034,73.17073171
2.821,-0.029794936,73.17073171
2.822,-0.013514144,73.17073171
2.823,0.003405111,73.17073171
2.824,0.018728209,73.17073171
2.825,0.031816688,73.17073171
2.826,0.040755162,73.17073171
2.827,0.044585937,73.17073171
2.828,0.04267055,73.17073171
2.829,0.035328232,73.17073171
2.83,0.023516677,73.17073171
2.831,0.007874347,73.17073171
2.832,-0.009364138,73.17073171
2.833,-0.027241086,73.17073171
2.834,-0.043841109,73.17073171
2.835,-0.057887282,73.17073171
2.836,-0.067464219,73.17073171
2.837,-0.071614224,73.17073171
2.838,-0.070337299,73.17073171
2.839,-0.062994982,73.17073171
2.84,-0.051183427,73.17073171
2.841,-0.035221866,73.17073171
2.842,-0.017344918,73.17073171
2.843,0.000851261,73.17073171
2.844,0.017132053,73.17073171
2.845,0.031178226,73.17073171
2.846,0.040435931,73.17073171
2.847,0.044266706,73.17073171
2.848,0.04267055,73.17073171
2.849,0.035328232,73.17073171
2.85,0.023197446,73.17073171
2.851,0.007235885,73.17073171
2.852,-0.010321832,73.17073171
2.853,-0.028518011,73.17073171
2.854,-0.045437265,73.17073171
2.855,-0.059164207,73.17073171
2.856,-0.068421912,73.17073171
2.857,-0.072571918,73.17073171
2.858,-0.070656531,73.17073171
2.859,-0.063633444,73.17073171
2.86,-0.051821889,73.17073171
2.861,-0.036498791,73.17073171
2.862,-0.018941074,73.17073171
2.863,-0.001702589,73.17073171
2.864,0.013939741,73.17073171
2.865,0.026708989,73.17073171
2.866,0.034689769,73.17073171
2.867,0.037882081,73.17073171
2.868,0.035009001,73.17073171
2.869,0.02702822,73.17073171
2.87,0.014578203,73.17073171
2.871,-0.001064126,73.17073171
2.872,-0.018621843,73.17073171
2.873,-0.036498791,73.17073171
2.874,-0.052460352,73.17073171
2.875,-0.0652296,73.17073171
2.876,-0.073529612,73.17073171
2.877,-0.076721924,73.17073171
2.878,-0.074168074,73.17073171
2.879,-0.066187294,73.17073171
2.88,-0.053737276,73.17073171
2.881,-0.038094947,73.17073171
2.882,-0.020856462,73.17073171
2.883,-0.003937207,73.17073171
2.884,0.01106666,73.17073171
2.885,0.022878214,73.17073171
2.886,0.029901301,73.17073171
2.887,0.031497457,73.17073171
2.888,0.027347451,73.17073171
2.889,0.017770515,73.17073171
2.89,0.004043573,73.17073171
2.891,-0.013514144,73.17073171
2.892,-0.032348785,73.17073171
2.893,-0.051502658,73.17073171
2.894,-0.068421912,73.17073171
2.895,-0.081829623,73.17073171
2.896,-0.090448866,73.17073171
2.897,-0.093321947,73.17073171
2.898,-0.090448866,73.17073171
2.899,-0.081829623,73.17073171
2.9,-0.068741143,73.17073171
2.901,-0.05214112,73.17073171
2.902,-0.034264173,73.17073171
2.903,-0.016387225,73.17073171
2.904,-0.000425664,73.17073171
2.905,0.011705122,73.17073171
2.906,0.019366671,73.17073171
2.907,0.02160129,73.17073171
2.908,0.018089746,73.17073171
2.909,0.009470504,73.17073171
2.91,-0.003298745,73.17073171
2.911,-0.019260306,73.17073171
2.912,-0.036818022,73.17073171
2.913,-0.054375739,73.17073171
2.914,-0.069698837,73.17073171
2.915,-0.082148854,73.17073171
2.916,-0.089810403,73.17073171
2.917,-0.092045022,73.17073171
2.918,-0.08885271,73.17073171
2.919,-0.080233467,73.17073171
2.92,-0.067464219,73.17073171
2.921,-0.051502658,73.17073171
2.922,-0.034264173,73.17073171
2.923,-0.017664149,73.17073171
2.924,-0.003298745,73.17073171
2.925,0.007235885,73.17073171
2.926,0.012982047,73.17073171
2.927,0.013301278,73.17073171
2.928,0.008193579,73.17073171
2.929,-0.001702589,73.17073171
2.93,-0.016067993,73.17073171
2.931,-0.032987248,73.17073171
2.932,-0.050864196,73.17073171
2.933,-0.068421912,73.17073171
2.934,-0.083425779,73.17073171
2.935,-0.094918103,73.17073171
2.936,-0.101621958,73.17073171
2.937,-0.102579652,73.17073171
2.938,-0.097791184,73.17073171
2.939,-0.087895016,73.17073171
2.94,-0.073529612,73.17073171
2.941,-0.056610357,73.17073171
2.942,-0.038414178,73.17073171
2.943,-0.02053723,73.17073171
2.944,-0.005214132,73.17073171
2.945,0.00595896,73.17073171
2.946,0.012024353,73.17073171
2.947,0.012662816,73.17073171
2.948,0.007555116,73.17073171
2.949,-0.002341051,73.17073171
2.95,-0.016706456,73.17073171
2.951,-0.03362571,73.17073171
2.952,-0.051821889,73.17073171
2.953,-0.069060375,73.17073171
2.954,-0.08374501,73.17073171
2.955,-0.094598872,73.17073171
2.956,-0.100345033,73.17073171
2.957,-0.100345033,73.17073171
2.958,-0.094918103,73.17073171
2.959,-0.084383473,73.17073171
2.96,-0.070018068,73.17073171
2.961,-0.053098814,73.17073171
2.962,-0.035541097,73.17073171
2.963,-0.018941074,73.17073171
2.964,-0.00457567,73.17073171
2.965,0.005639729,73.17073171
2.966,0.010428197,73.17073171
2.967,0.010108966,73.17073171
2.968,0.004682035,73.17073171
2.969,-0.006171826,73.17073171
2.97,-0.020856462,73.17073171
2.971,-0.038094947,73.17073171
2.972,-0.055971895,73.17073171
2.973,-0.072891149,73.17073171
2.974,-0.087256554,73.17073171
2.975,-0.097471953,73.17073171
2.976,-0.102898883,73.17073171
2.977,-0.102260421,73.17073171
2.978,-0.096514259,73.17073171
2.979,-0.085660398,73.17073171
2.98,-0.070656531,73.17073171
2.981,-0.053737276,73.17073171
2.982,-0.035860329,73.17073171
2.983,-0.019260306,73.17073171
2.984,-0.005214132,73.17073171
2.985,0.004682035,73.17073171
2.986,0.008832041,73.17073171
2.987,0.007874347,73.17073171
2.988,0.001808954,73.17073171
2.989,-0.0100026,73.17073171
2.99,-0.025325699,73.17073171
2.991,-0.043202646,73.17073171
2.992,-0.061398826,73.17073171
2.993,-0.078637311,73.17073171
2.994,-0.093002716,73.17073171
2.995,-0.103218114,73.17073171
2.996,-0.107687351,73.17073171
2.997,-0.106729658,73.17073171
2.998,-0.099706571,73.17073171
2.999,-0.088214247,73.17073171
3,-0.07321038,73.17073171
3.001,-0.056291126,73.17073171
3.002,-0.039052641,73.17073171
3.003,-0.02309108,73.17073171
3.004,-0.0100026,73.17073171
3.005,-0.001383358,73.17073171
3.006,0.002128186,73.17073171
3.007,0.000212798,73.17073171
3.008,-0.006491057,73.17073171
3.009,-0.017983381,73.17073171
3.01,-0.032668016,73.17073171
3.011,-0.048948808,73.17073171
3.012,-0.0652296,73.17073171
3.013,-0.079595005,73.17073171
3.014,-0.091087328,73.17073171
3.015,-0.097791184,73.17073171
3.016,-0.099068109,73.17073171
3.017,-0.09427964,73.17073171
3.018,-0.084064242,73.17073171
3.019,-0.069060375,73.17073171
3.02,-0.050225733,73.17073171
3.021,-0.029475704,73.17073171
3.022,-0.008406444,73.17073171
3.023,0.01106666,73.17073171
3.024,0.027347451,73.17073171
3.025,0.039478237,73.17073171
3.026,0.045862862,73.17073171
3.027,0.046501324,73.17073171
3.028,0.041393625,73.17073171
3.029,0.031497457,73.17073171
3.03,0.018089746,73.17073171
3.031,0.003405111,73.17073171
3.032,-0.012237219,73.17073171
3.033,-0.026602623,73.17073171
3.034,-0.037775716,73.17073171
3.035,-0.044479571,73.17073171
3.036,-0.045756496,73.17073171
3.037,-0.04160649,73.17073171
3.038,-0.032029554,73.17073171
3.039,-0.017983381,73.17073171
3.04,-0.000744895,73.17073171
3.041,0.018089746,73.17073171
3.042,0.037243619,73.17073171
3.043,0.054801336,73.17073171
3.044,0.06916674,73.17073171
3.045,0.079062908,73.17073171
3.046,0.083532145,73.17073171
3.047,0.082893682,73.17073171
3.048,0.076828289,73.17073171
3.049,0.066612891,73.17073171
3.05,0.053524411,73.17073171
3.051,0.038839775,73.17073171
3.052,0.024793602,73.17073171
3.053,0.012024353,73.17073171
3.054,0.003405111,73.17073171
3.055,-0.001383358,73.17073171
3.056,-0.000744895,73.17073171
3.057,0.005320498,73.17073171
3.058,0.015855128,73.17073171
3.059,0.030539764,73.17073171
3.06,0.047778249,73.17073171
3.061,0.066293659,73.17073171
3.062,0.083851376,73.17073171
3.063,0.098855243,73.17073171
3.064,0.110028335,73.17073171
3.065,0.116093728,73.17073171
3.066,0.11641296,73.17073171
3.067,0.110986029,73.17073171
3.068,0.100132168,73.17073171
3.069,0.084489838,73.17073171
3.07,0.065655197,73.17073171
3.071,0.045543631,73.17073171
3.072,0.025432064,73.17073171
3.073,0.006916654,73.17073171
3.074,-0.007448751,73.17073171
3.075,-0.017664149,73.17073171
3.076,-0.022452618,73.17073171
3.077,-0.021494924,73.17073171
3.078,-0.015748762,73.17073171
3.079,-0.005852595,73.17073171
3.08,0.006278191,73.17073171
3.081,0.019685902,73.17073171
3.082,0.032455151,73.17073171
3.083,0.042351318,73.17073171
3.084,0.048416711,73.17073171
3.085,0.049693636,73.17073171
3.086,0.044905168,73.17073171
3.087,0.034689769,73.17073171
3.088,0.019366671,73.17073171
3.089,0.00053203,73.17073171
3.09,-0.021494924,73.17073171
3.091,-0.04416034,73.17073171
3.092,-0.065868063,73.17073171
3.093,-0.085341166,73.17073171
3.094,-0.100345033,73.17073171
3.095,-0.110241201,73.17073171
3.096,-0.114391207,73.17073171
3.097,-0.112795051,73.17073171
3.098,-0.105452733,73.17073171
3.099,-0.093641178,73.17073171
3.1,-0.078956542,73.17073171
3.101,-0.063314213,73.17073171
3.102,-0.048310346,73.17073171
3.103,-0.035221866,73.17073171
3.104,-0.026602623,73.17073171
3.105,-0.022771849,73.17073171
3.106,-0.024368005,73.17073171
3.107,-0.032029554,73.17073171
3.108,-0.044479571,73.17073171
3.109,-0.061079594,73.17073171
3.11,-0.080233467,73.17073171
3.111,-0.100345033,73.17073171
3.112,-0.119498906,73.17073171
3.113,-0.136098929,73.17073171
3.114,-0.148548946,73.17073171
3.115,-0.155572033,73.17073171
3.116,-0.157168189,73.17073171
3.117,-0.153337415,73.17073171
3.118,-0.144079709,73.17073171
3.119,-0.131310461,73.17073171
3.12,-0.115668132,73.17073171
3.121,-0.099068109,73.17073171
3.122,-0.083106548,73.17073171
3.123,-0.069379606,73.17073171
3.124,-0.059483438,73.17073171
3.125,-0.05469497,73.17073171
3.126,-0.055333433,73.17073171
3.127,-0.061398826,73.17073171
3.128,-0.072252687,73.17073171
3.129,-0.086618091,73.17073171
3.13,-0.103537346,73.17073171
3.131,-0.120775831,73.17073171
3.132,-0.136737392,73.17073171
3.133,-0.149825871,73.17073171
3.134,-0.158764345,73.17073171
3.135,-0.16259512,73.17073171
3.136,-0.160679733,73.17073171
3.137,-0.153337415,73.17073171
3.138,-0.141206629,73.17073171
3.139,-0.125245068,73.17073171
3.14,-0.107687351,73.17073171
3.141,-0.089171941,73.17073171
3.142,-0.072571918,73.17073171
3.143,-0.058525745,73.17073171
3.144,-0.049268039,73.17073171
3.145,-0.045118034,73.17073171
3.146,-0.04671419,73.17073171
3.147,-0.054056508,73.17073171
3.148,-0.066187294,73.17073171
3.149,-0.081829623,73.17073171
3.15,-0.09938734,73.17073171
3.151,-0.11790275,73.17073171
3.152,-0.135460467,73.17073171
3.153,-0.150145103,73.17073171
3.154,-0.160679733,73.17073171
3.155,-0.166106663,73.17073171
3.156,-0.166106663,73.17073171
3.157,-0.160998964,73.17073171
3.158,-0.151422027,73.17073171
3.159,-0.138652779,73.17073171
3.16,-0.124287374,73.17073171
3.161,-0.10992197,73.17073171
3.162,-0.097791184,73.17073171
3.163,-0.089171941,73.17073171
3.164,-0.085021935,73.17073171
3.165,-0.086618091,73.17073171
3.166,-0.093641178,73.17073171
3.167,-0.106091195,73.17073171
3.168,-0.122691218,73.17073171
3.169,-0.142164322,73.17073171
3.17,-0.162914351,73.17073171
3.171,-0.182706686,73.17073171
3.172,-0.199945172,73.17073171
3.173,-0.212395189,73.17073171
3.174,-0.218779813,73.17073171
3.175,-0.217502888,73.17073171
3.176,-0.208245183,73.17073171
3.177,-0.191006698,73.17073171
3.178,-0.166106663,73.17073171
3.179,-0.133864311,73.17073171
3.18,-0.096195028,73.17073171
3.181,-0.053737276,73.17073171
3.182,-0.007767982,73.17073171
3.183,0.039478237,73.17073171
3.184,0.088001382,73.17073171
3.185,0.136524526,73.17073171
3.186,0.184728439,73.17073171
3.187,0.23229389,73.17073171
3.188,0.279540109,73.17073171
3.189,0.326467097,73.17073171
3.19,0.373074854,73.17073171
3.191,0.420321074,73.17073171
3.192,0.468844218,73.17073171
3.193,0.519601981,73.17073171
3.194,0.572594362,73.17073171
3.195,0.627182899,73.17073171
3.196,0.682409899,73.17073171
3.197,0.735721511,73.17073171
3.198,0.784563887,73.17073171
3.199,0.826063944,73.17073171
3.2,0.857667834,73.17073171
3.201,0.876821707,73.17073171
3.202,0.881610175,73.17073171
3.203,0.871075545,73.17073171
3.204,0.844579354,73.17073171
3.205,0.802121603,73.17073171
3.206,0.744340754,73.17073171
3.207,0.673152194,73.17073171
3.208,0.591109772,73.17073171
3.209,0.50108657,77.61966365
3.21,0.406594131,77.61966365
3.211,0.310824768,77.61966365
3.212,0.217609254,77.61966365
3.213,0.129501439,77.61966365
3.214,0.050012867,77.61966365
3.215,-0.018621843,77.61966365
3.216,-0.076083461,77.61966365
3.217,-0.121414293,77.61966365
3.218,-0.154614339,77.61966365
3.219,-0.176960524,77.61966365
3.22,-0.190368235,77.61966365
3.221,-0.19675286,77.61966365
3.222,-0.198029784,77.61966365
3.223,-0.19675286,77.61966365
3.224,-0.194518241,77.61966365
3.225,-0.193560547,77.61966365
3.226,-0.194518241,77.61966365
3.227,-0.197710553,77.61966365
3.228,-0.203775946,77.61966365
3.229,-0.211437495,77.61966365
3.23,-0.219737507,77.61966365
3.231,-0.228037518,77.61966365
3.232,-0.235060605,77.61966365
3.233,-0.23889138,77.61966365
3.234,-0.239210611,77.61966365
3.235,-0.235379836,77.61966365
3.236,-0.226760593,77.61966365
3.237,-0.214310576,77.61966365
3.238,-0.198668247,77.61966365
3.239,-0.18111053,77.61966365
3.24,-0.163233582,77.61966365
3.241,-0.146633559,77.61966365
3.242,-0.133225848,77.61966365
3.243,-0.123648912,77.61966365
3.244,-0.119498906,77.61966365
3.245,-0.121095062,77.61966365
3.246,-0.128118149,77.61966365
3.247,-0.140248935,77.61966365
3.248,-0.156529727,77.61966365
3.249,-0.175045137,77.61966365
3.25,-0.194518241,77.61966365
3.251,-0.213033651,77.61966365
3.252,-0.228995212,77.61966365
3.253,-0.240806767,77.61966365
3.254,-0.247510622,77.61966365
3.255,-0.248468316,77.61966365
3.256,-0.243679848,77.61966365
3.257,-0.233464449,77.61966365
3.258,-0.219099044,77.61966365
3.259,-0.20217979,77.61966365
3.26,-0.183983611,77.61966365
3.261,-0.166425894,77.61966365
3.262,-0.151422027,77.61966365
3.263,-0.139929704,77.61966365
3.264,-0.133225848,77.61966365
3.265,-0.132268155,77.61966365
3.266,-0.136737392,77.61966365
3.267,-0.146314328,77.61966365
3.268,-0.159722039,77.61966365
3.269,-0.1756836,77.61966365
3.27,-0.192602854,77.61966365
3.271,-0.208564414,77.61966365
3.272,-0.222291356,77.61966365
3.273,-0.231549062,77.61966365
3.274,-0.23633753,77.61966365
3.275,-0.235060605,77.61966365
3.276,-0.22835675,77.61966365
3.277,-0.216864426,77.61966365
3.278,-0.201541328,77.61966365
3.279,-0.183983611,77.61966365
3.28,-0.165468201,77.61966365
3.281,-0.148229715,77.61966365
3.282,-0.133864311,77.61966365
3.283,-0.123329681,77.61966365
3.284,-0.118221981,77.61966365
3.285,-0.118541213,77.61966365
3.286,-0.124925837,77.61966365
3.287,-0.13641816,77.61966365
3.288,-0.151741259,77.61966365
3.289,-0.169618206,77.61966365
3.29,-0.187814386,77.61966365
3.291,-0.205052871,77.61966365
3.292,-0.219099044,77.61966365
3.293,-0.229314443,77.61966365
3.294,-0.23378368,77.61966365
3.295,-0.232825986,77.61966365
3.296,-0.226122131,77.61966365
3.297,-0.214310576,77.61966365
3.298,-0.198349016,77.61966365
3.299,-0.180472068,77.61966365
3.3,-0.161637426,77.61966365
3.301,-0.143760478,77.61966365
3.302,-0.128756611,77.61966365
3.303,-0.11790275,77.61966365
3.304,-0.112475819,77.61966365
3.305,-0.112475819,77.61966365
3.306,-0.11790275,77.61966365
3.307,-0.128118149,77.61966365
3.308,-0.142164322,77.61966365
3.309,-0.158445114,77.61966365
3.31,-0.175364368,77.61966365
3.311,-0.191325929,77.61966365
3.312,-0.204095177,77.61966365
3.313,-0.21271442,77.61966365
3.314,-0.215906732,77.61966365
3.315,-0.213672114,77.61966365
3.316,-0.206010565,77.61966365
3.317,-0.193560547,77.61966365
3.318,-0.177598987,77.61966365
3.319,-0.159722039,77.61966365
3.32,-0.141206629,77.61966365
3.321,-0.123968143,77.61966365
3.322,-0.10992197,77.61966365
3.323,-0.100025802,77.61966365
3.324,-0.095237334,77.61966365
3.325,-0.095875796,77.61966365
3.326,-0.101941189,77.61966365
3.327,-0.112795051,77.61966365
3.328,-0.126841224,77.61966365
3.329,-0.142483553,77.61966365
3.33,-0.158764345,77.61966365
3.331,-0.173448981,77.61966365
3.332,-0.184941305,77.61966365
3.333,-0.192283623,77.61966365
3.334,-0.194518241,77.61966365
3.335,-0.191006698,77.61966365
3.336,-0.182068224,77.61966365
3.337,-0.168660513,77.61966365
3.338,-0.151741259,77.61966365
3.339,-0.133225848,77.61966365
3.34,-0.114710438,77.61966365
3.341,-0.097471953,77.61966365
3.342,-0.084064242,77.61966365
3.343,-0.075125768,77.61966365
3.344,-0.071933456,77.61966365
3.345,-0.074806536,77.61966365
3.346,-0.082787317,77.61966365
3.347,-0.095237334,77.61966365
3.348,-0.110879663,77.61966365
3.349,-0.128118149,77.61966365
3.35,-0.145037403,77.61966365
3.351,-0.160679733,77.61966365
3.352,-0.172491287,77.61966365
3.353,-0.179833605,77.61966365
3.354,-0.181748993,77.61966365
3.355,-0.177918218,77.61966365
3.356,-0.168660513,77.61966365
3.357,-0.154295108,77.61966365
3.358,-0.136737392,77.61966365
3.359,-0.116945056,77.61966365
3.36,-0.097471953,77.61966365
3.361,-0.079595005,77.61966365
3.362,-0.064910369,77.61966365
3.363,-0.05469497,77.61966365
3.364,-0.049906502,77.61966365
3.365,-0.050544964,77.61966365
3.366,-0.056610357,77.61966365
3.367,-0.067144987,77.61966365
3.368,-0.080871929,77.61966365
3.369,-0.096514259,77.61966365
3.37,-0.112156588,77.61966365
3.371,-0.125564299,77.61966365
3.372,-0.136098929,77.61966365
3.373,-0.14152586,77.61966365
3.374,-0.142164322,77.61966365
3.375,-0.137375854,77.61966365
3.376,-0.127479686,77.61966365
3.377,-0.113433513,77.61966365
3.378,-0.09683349,77.61966365
3.379,-0.078956542,77.61966365
3.38,-0.061079594,77.61966365
3.381,-0.045437265,77.61966365
3.382,-0.03362571,77.61966365
3.383,-0.026283392,77.61966365
3.384,-0.024368005,77.61966365
3.385,-0.027879548,77.61966365
3.386,-0.036498791,77.61966365
3.387,-0.048948808,77.61966365
3.388,-0.063952675,77.61966365
3.389,-0.080233467,77.61966365
3.39,-0.095556565,77.61966365
3.391,-0.108325814,77.61966365
3.392,-0.117583519,77.61966365
3.393,-0.121733525,77.61966365
3.394,-0.119818137,77.61966365
3.395,-0.112156588,77.61966365
3.396,-0.09938734,77.61966365
3.397,-0.081829623,77.61966365
3.398,-0.061398826,77.61966365
3.399,-0.039691103,77.61966365
3.4,-0.018621843,77.61966365
3.401,0.000212798,77.61966365
3.402,0.014578203,77.61966365
3.403,0.024155139,77.61966365
3.404,0.028305145,77.61966365
3.405,0.026389758,77.61966365
3.406,0.019366671,77.61966365
3.407,0.00851281,77.61966365
3.408,-0.005214132,77.61966365
3.409,-0.020217999,77.61966365
3.41,-0.034902635,77.61966365
3.411,-0.047352652,77.61966365
3.412,-0.056291126,77.61966365
3.413,-0.060121901,77.61966365
3.414,-0.058525745,77.61966365
3.415,-0.050864196,77.61966365
3.416,-0.038414178,77.61966365
3.417,-0.021494924,77.61966365
3.418,-0.002341051,77.61966365
3.419,0.017451284,77.61966365
3.42,0.036605157,77.61966365
3.421,0.05320518,77.61966365
3.422,0.065974428,77.61966365
3.423,0.073955208,77.61966365
3.424,0.075870596,77.61966365
3.425,0.072678284,77.61966365
3.426,0.06373981,77.61966365
3.427,0.050970561,77.61966365
3.428,0.035009001,77.61966365
3.429,0.018408977,77.61966365
3.43,0.002128186,77.61966365
3.431,-0.011917988,77.61966365
3.432,-0.022133386,77.61966365
3.433,-0.027241086,77.61966365
3.434,-0.027241086,77.61966365
3.435,-0.021175693,77.61966365
3.436,-0.010321832,77.61966365
3.437,0.004682035,77.61966365
3.438,0.02160129,77.61966365
3.439,0.039478237,77.61966365
3.44,0.056716723,77.61966365
3.441,0.071082127,77.61966365
3.442,0.081297526,77.61966365
3.443,0.086724457,77.61966365
3.444,0.086405226,77.61966365
3.445,0.080339833,77.61966365
3.446,0.069485971,77.61966365
3.447,0.054801336,77.61966365
3.448,0.03756285,77.61966365
3.449,0.019685902,77.61966365
3.45,0.003085879,77.61966365
3.451,-0.011598756,77.61966365
3.452,-0.022133386,77.61966365
3.453,-0.027879548,77.61966365
3.454,-0.028518011,77.61966365
3.455,-0.023729543,77.61966365
3.456,-0.014152606,77.61966365
3.457,-0.001383358,77.61966365
3.458,0.012982047,77.61966365
3.459,0.028305145,77.61966365
3.46,0.042032087,77.61966365
3.461,0.05320518,77.61966365
3.462,0.059909035,77.61966365
3.463,0.061505191,77.61966365
3.464,0.057674417,77.61966365
3.465,0.04809748,77.61966365
3.466,0.034051307,77.61966365
3.467,0.01649359,77.61966365
3.468,-0.002660283,77.61966365
3.469,-0.022452618,77.61966365
3.47,-0.040968028,77.61966365
3.471,-0.056291126,77.61966365
3.472,-0.067464219,77.61966365
3.473,-0.072891149,77.61966365
3.474,-0.072891149,77.61966365
3.475,-0.067144987,77.61966365
3.476,-0.056610357,77.61966365
3.477,-0.042564184,77.61966365
3.478,-0.026602623,77.61966365
3.479,-0.010641063,77.61966365
3.48,0.004043573,77.61966365
3.481,0.015216665,77.61966365
3.482,0.022239752,77.61966365
3.483,0.024155139,77.61966365
3.484,0.020005134,77.61966365
3.485,0.010428197,77.61966365
3.486,-0.003617976,77.61966365
3.487,-0.021494924,77.61966365
3.488,-0.04160649,77.61966365
3.489,-0.062037288,77.61966365
3.49,-0.080871929,77.61966365
3.491,-0.09683349,77.61966365
3.492,-0.108325814,77.61966365
3.493,-0.114391207,77.61966365
3.494,-0.115029669,77.61966365
3.495,-0.110241201,77.61966365
3.496,-0.100664265,77.61966365
3.497,-0.087895016,77.61966365
3.498,-0.07321038,77.61966365
3.499,-0.058525745,77.61966365
3.5,-0.045118034,77.61966365
3.501,-0.034902635,77.61966365
3.502,-0.029475704,77.61966365
3.503,-0.028837242,77.61966365
3.504,-0.033944941,77.61966365
3.505,-0.044479571,77.61966365
3.506,-0.059164207,77.61966365
3.507,-0.076721924,77.61966365
3.508,-0.096195028,77.61966365
3.509,-0.115029669,77.61966365
3.51,-0.132268155,77.61966365
3.511,-0.145995097,77.61966365
3.512,-0.154933571,77.61966365
3.513,-0.158445114,77.61966365
3.514,-0.155891264,77.61966365
3.515,-0.147910484,77.61966365
3.516,-0.135460467,77.61966365
3.517,-0.119498906,77.61966365
3.518,-0.101941189,77.61966365
3.519,-0.084383473,77.61966365
3.52,-0.068741143,77.61966365
3.521,-0.056929589,77.61966365
3.522,-0.049587271,77.61966365
3.523,-0.047991115,77.61966365
3.524,-0.05214112,77.61966365
3.525,-0.061398826,77.61966365
3.526,-0.075125768,77.61966365
3.527,-0.092045022,77.61966365
3.528,-0.110560432,77.61966365
3.529,-0.128756611,77.61966365
3.53,-0.144718172,77.61966365
3.531,-0.15748742,77.61966365
3.532,-0.165468201,77.61966365
3.533,-0.167702819,77.61966365
3.534,-0.164191276,77.61966365
3.535,-0.155572033,77.61966365
3.536,-0.142802785,77.61966365
3.537,-0.126521993,77.61966365
3.538,-0.109283507,77.61966365
3.539,-0.092364253,77.61966365
3.54,-0.077041155,77.61966365
3.541,-0.065548831,77.61966365
3.542,-0.058525745,77.61966365
3.543,-0.056929589,77.61966365
3.544,-0.060760363,77.61966365
3.545,-0.069698837,77.61966365
3.546,-0.082787317,77.61966365
3.547,-0.098748877,77.61966365
3.548,-0.115987363,77.61966365
3.549,-0.132906617,77.61966365
3.55,-0.147272022,77.61966365
3.551,-0.158125883,77.61966365
3.552,-0.163872045,77.61966365
3.553,-0.163872045,77.61966365
3.554,-0.158445114,77.61966365
3.555,-0.147591253,77.61966365
3.556,-0.132906617,77.61966365
3.557,-0.1153489,77.61966365
3.558,-0.096514259,77.61966365
3.559,-0.078637311,77.61966365
3.56,-0.062994982,77.61966365
3.561,-0.051502658,77.61966365
3.562,-0.045118034,77.61966365
3.563,-0.04416034,77.61966365
3.564,-0.049268039,77.61966365
3.565,-0.059483438,77.61966365
3.566,-0.073848843,77.61966365
3.567,-0.090768097,77.61966365
3.568,-0.108645045,77.61966365
3.569,-0.12588353,77.61966365
3.57,-0.140887397,77.61966365
3.571,-0.15206049,77.61966365
3.572,-0.158445114,77.61966365
3.573,-0.159083576,77.61966365
3.574,-0.154295108,77.61966365
3.575,-0.144079709,77.61966365
3.576,-0.129714305,77.61966365
3.577,-0.112795051,77.61966365
3.578,-0.094598872,77.61966365
3.579,-0.077360386,77.61966365
3.58,-0.062356519,77.61966365
3.581,-0.051502658,77.61966365
3.582,-0.045437265,77.61966365
3.583,-0.045118034,77.61966365
3.584,-0.050225733,77.61966365
3.585,-0.060121901,77.61966365
3.586,-0.074168074,77.61966365
3.587,-0.090448866,77.61966365
3.588,-0.107687351,77.61966365
3.589,-0.123968143,77.61966365
3.59,-0.137695085,77.61966365
3.591,-0.147591253,77.61966365
3.592,-0.152379721,77.61966365
3.593,-0.151422027,77.61966365
3.594,-0.144718172,77.61966365
3.595,-0.133225848,77.61966365
3.596,-0.11790275,77.61966365
3.597,-0.100345033,77.61966365
3.598,-0.082148854,77.61966365
3.599,-0.064910369,77.61966365
3.6,-0.050544964,77.61966365
3.601,-0.040329566,77.61966365
3.602,-0.035221866,77.61966365
3.603,-0.035860329,77.61966365
3.604,-0.042244953,77.61966365
3.605,-0.053098814,77.61966365
3.606,-0.06778345,77.61966365
3.607,-0.084702704,77.61966365
3.608,-0.102579652,77.61966365
3.609,-0.118860444,77.61966365
3.61,-0.132587386,77.61966365
3.611,-0.142164322,77.61966365
3.612,-0.146633559,77.61966365
3.613,-0.145675866,77.61966365
3.614,-0.13897201,77.61966365
3.615,-0.127160455,77.61966365
3.616,-0.111837357,77.61966365
3.617,-0.09427964,77.61966365
3.618,-0.076083461,77.61966365
3.619,-0.059802669,77.61966365
3.62,-0.046075727,77.61966365
3.621,-0.037137253,77.61966365
3.622,-0.032987248,77.61966365
3.623,-0.034902635,77.61966365
3.624,-0.041925722,77.61966365
3.625,-0.054056508,77.61966365
3.626,-0.069379606,77.61966365
3.627,-0.087256554,77.61966365
3.628,-0.105452733,77.61966365
3.629,-0.122371987,77.61966365
3.63,-0.13641816,77.61966365
3.631,-0.145995097,77.61966365
3.632,-0.150145103,77.61966365
3.633,-0.148868178,77.61966365
3.634,-0.141845091,77.61966365
3.635,-0.130033536,77.61966365
3.636,-0.114710438,77.61966365
3.637,-0.097471953,77.61966365
3.638,-0.079914236,77.61966365
3.639,-0.063633444,77.61966365
3.64,-0.050225733,77.61966365
3.641,-0.04160649,77.61966365
3.642,-0.038094947,77.61966365
3.643,-0.040010334,77.61966365
3.644,-0.047671883,77.61966365
3.645,-0.059802669,77.61966365
3.646,-0.075444999,77.61966365
3.647,-0.093321947,77.61966365
3.648,-0.111198895,77.61966365
3.649,-0.128118149,77.61966365
3.65,-0.14152586,77.61966365
3.651,-0.150783565,77.61966365
3.652,-0.154614339,77.61966365
3.653,-0.152698952,77.61966365
3.654,-0.145356634,77.61966365
3.655,-0.133545079,77.61966365
3.656,-0.118221981,77.61966365
3.657,-0.100983496,77.61966365
3.658,-0.08374501,77.61966365
3.659,-0.068421912,77.61966365
3.66,-0.056610357,77.61966365
3.661,-0.048948808,77.61966365
3.662,-0.047033421,77.61966365
3.663,-0.050225733,77.61966365
3.664,-0.058844976,77.61966365
3.665,-0.071933456,77.61966365
3.666,-0.087895016,77.61966365
3.667,-0.105452733,77.61966365
3.668,-0.123010449,77.61966365
3.669,-0.13897201,77.61966365
3.67,-0.151102796,77.61966365
3.671,-0.158764345,77.61966365
3.672,-0.160998964,77.61966365
3.673,-0.157806652,77.61966365
3.674,-0.148868178,77.61966365
3.675,-0.135779698,77.61966365
3.676,-0.119498906,77.61966365
3.677,-0.101621958,77.61966365
3.678,-0.084064242,77.61966365
3.679,-0.068421912,77.61966365
3.68,-0.056291126,77.61966365
3.681,-0.048629577,77.61966365
3.682,-0.04671419,77.61966365
3.683,-0.050544964,77.61966365
3.684,-0.059483438,77.61966365
3.685,-0.07321038,77.61966365
3.686,-0.089810403,77.61966365
3.687,-0.108325814,77.61966365
3.688,-0.126202762,77.61966365
3.689,-0.142164322,77.61966365
3.69,-0.154614339,77.61966365
3.691,-0.16259512,77.61966365
3.692,-0.164829738,77.61966365
3.693,-0.161318195,77.61966365
3.694,-0.152379721,77.61966365
3.695,-0.139291241,77.61966365
3.696,-0.123010449,77.61966365
3.697,-0.105133502,77.61966365
3.698,-0.087575785,77.61966365
3.699,-0.072252687,77.61966365
3.7,-0.060441132,77.61966365
3.701,-0.053418045,77.61966365
3.702,-0.051821889,77.61966365
3.703,-0.055652664,77.61966365
3.704,-0.064910369,77.61966365
3.705,-0.077998849,77.61966365
3.706,-0.093641178,77.61966365
3.707,-0.110879663,77.61966365
3.708,-0.127160455,77.61966365
3.709,-0.14152586,77.61966365
3.71,-0.15206049,77.61966365
3.711,-0.158125883,77.61966365
3.712,-0.158445114,77.61966365
3.713,-0.153337415,77.61966365
3.714,-0.143122016,77.61966365
3.715,-0.128756611,77.61966365
3.716,-0.111837357,77.61966365
3.717,-0.093960409,77.61966365
3.718,-0.076402693,77.61966365
3.719,-0.061398826,77.61966365
3.72,-0.050225733,77.61966365
3.721,-0.04416034,77.61966365
3.722,-0.043521878,77.61966365
3.723,-0.048948808,77.61966365
3.724,-0.059483438,77.61966365
3.725,-0.073848843,77.61966365
3.726,-0.091087328,77.61966365
3.727,-0.109283507,77.61966365
3.728,-0.126841224,77.61966365
3.729,-0.142164322,77.61966365
3.73,-0.153656646,77.61966365
3.731,-0.16004127,77.61966365
3.732,-0.160998964,77.61966365
3.733,-0.156210496,77.61966365
3.734,-0.146314328,77.61966365
3.735,-0.132268155,77.61966365
3.736,-0.1153489,77.61966365
3.737,-0.098110415,77.61966365
3.738,-0.081510392,77.61966365
3.739,-0.067144987,77.61966365
3.74,-0.056929589,77.61966365
3.741,-0.051502658,77.61966365
3.742,-0.051502658,77.61966365
3.743,-0.05724882,77.61966365
3.744,-0.06778345,77.61966365
3.745,-0.082148854,77.61966365
3.746,-0.099068109,77.61966365
3.747,-0.116945056,77.61966365
3.748,-0.133864311,77.61966365
3.749,-0.148229715,77.61966365
3.75,-0.158445114,77.61966365
3.751,-0.163872045,77.61966365
3.752,-0.163552813,77.61966365
3.753,-0.157806652,77.61966365
3.754,-0.14695279,77.61966365
3.755,-0.132268155,77.61966365
3.756,-0.115668132,77.61966365
3.757,-0.098110415,77.61966365
3.758,-0.082148854,77.61966365
3.759,-0.068421912,77.61966365
3.76,-0.059164207,77.61966365
3.761,-0.05469497,77.61966365
3.762,-0.055971895,77.61966365
3.763,-0.062356519,77.61966365
3.764,-0.073529612,77.61966365
3.765,-0.088533479,77.61966365
3.766,-0.105452733,77.61966365
3.767,-0.123010449,77.61966365
3.768,-0.139291241,77.61966365
3.769,-0.153018183,77.61966365
3.77,-0.161956657,77.61966365
3.771,-0.165787432,77.61966365
3.772,-0.163872045,77.61966365
3.773,-0.156210496,77.61966365
3.774,-0.143441247,77.61966365
3.775,-0.127160455,77.61966365
3.776,-0.108964276,77.61966365
3.777,-0.090129635,77.61966365
3.778,-0.072571918,77.61966365
3.779,-0.057887282,77.61966365
3.78,-0.047671883,77.61966365
3.781,-0.042883415,77.61966365
3.782,-0.043521878,77.61966365
3.783,-0.049906502,77.61966365
3.784,-0.060760363,77.61966365
3.785,-0.075444999,77.61966365
3.786,-0.091725791,77.61966365
3.787,-0.108645045,77.61966365
3.788,-0.124606606,77.61966365
3.789,-0.137375854,77.61966365
3.79,-0.145675866,77.61966365
3.791,-0.149187409,77.61966365
3.792,-0.14695279,77.61966365
3.793,-0.139291241,77.61966365
3.794,-0.126841224,77.61966365
3.795,-0.110879663,77.61966365
3.796,-0.093321947,77.61966365
3.797,-0.075125768,77.61966365
3.798,-0.058844976,77.61966365
3.799,-0.045756496,77.61966365
3.8,-0.036818022,77.61966365
3.801,-0.03362571,77.61966365
3.802,-0.03617956,77.61966365
3.803,-0.04416034,77.61966365
3.804,-0.056929589,77.61966365
3.805,-0.072891149,77.61966365
3.806,-0.090448866,77.61966365
3.807,-0.108325814,77.61966365
3.808,-0.124925837,77.61966365
3.809,-0.138014316,77.61966365
3.81,-0.146633559,77.61966365
3.811,-0.150145103,77.61966365
3.812,-0.147591253,77.61966365
3.813,-0.140248935,77.61966365
3.814,-0.128118149,77.61966365
3.815,-0.112475819,77.61966365
3.816,-0.095237334,77.61966365
3.817,-0.077998849,77.61966365
3.818,-0.062356519,77.61966365
3.819,-0.049587271,77.61966365
3.82,-0.041287259,77.61966365
3.821,-0.038414178,77.61966365
3.822,-0.041287259,77.61966365
3.823,-0.049587271,77.61966365
3.824,-0.06267575,77.61966365
3.825,-0.078637311,77.61966365
3.826,-0.096195028,77.61966365
3.827,-0.113114282,77.61966365
3.828,-0.12843738,77.61966365
3.829,-0.140568166,77.61966365
3.83,-0.148229715,77.61966365
3.831,-0.150464334,77.61966365
3.832,-0.147272022,77.61966365
3.833,-0.138333548,77.61966365
3.834,-0.124925837,77.61966365
3.835,-0.108325814,77.61966365
3.836,-0.089810403,77.61966365
3.837,-0.071614224,77.61966365
3.838,-0.055014201,77.61966365
3.839,-0.04160649,77.61966365
3.84,-0.032987248,77.61966365
3.841,-0.029475704,77.61966365
3.842,-0.03107186,77.61966365
3.843,-0.038094947,77.61966365
3.844,-0.048948808,77.61966365
3.845,-0.06267575,77.61966365
3.846,-0.077679617,77.61966365
3.847,-0.092364253,77.61966365
3.848,-0.10481427,77.61966365
3.849,-0.113433513,77.61966365
3.85,-0.117264288,77.61966365
3.851,-0.1153489,77.61966365
3.852,-0.108325814,77.61966365
3.853,-0.095875796,77.61966365
3.854,-0.079275773,77.61966365
3.855,-0.060441132,77.61966365
3.856,-0.040329566,77.61966365
3.857,-0.020856462,77.61966365
3.858,-0.003617976,77.61966365
3.859,0.009470504,77.61966365
3.86,0.018089746,77.61966365
3.861,0.021282058,77.61966365
3.862,0.018728209,77.61966365
3.863,0.01106666,77.61966365
3.864,-0.000425664,77.61966365
3.865,-0.0151103,77.61966365
3.866,-0.030752629,77.61966365
3.867,-0.046075727,77.61966365
3.868,-0.059164207,77.61966365
3.869,-0.068421912,77.61966365
3.87,-0.072891149,77.61966365
3.871,-0.071294993,77.61966365
3.872,-0.064271906,77.61966365
3.873,-0.051821889,77.61966365
3.874,-0.035221866,77.61966365
3.875,-0.016067993,77.61966365
3.876,0.004362804,77.61966365
3.877,0.023516677,77.61966365
3.878,0.041074394,77.61966365
3.879,0.054162873,77.61966365
3.88,0.062462885,77.61966365
3.881,0.065016734,77.61966365
3.882,0.061824422,77.61966365
3.883,0.053524411,77.61966365
3.884,0.041074394,77.61966365
3.885,0.025751295,77.61966365
3.886,0.009151272,77.61966365
3.887,-0.006491057,77.61966365
3.888,-0.02053723,77.61966365
3.889,-0.030752629,77.61966365
3.89,-0.036498791,77.61966365
3.891,-0.036818022,77.61966365
3.892,-0.032029554,77.61966365
3.893,-0.022452618,77.61966365
3.894,-0.009364138,77.61966365
3.895,0.006278191,77.61966365
3.896,0.021920521,77.61966365
3.897,0.037243619,77.61966365
3.898,0.049693636,77.61966365
3.899,0.057674417,77.61966365
3.9,0.060547497,77.61966365
3.901,0.057674417,77.61966365
3.902,0.049055174,77.61966365
3.903,0.035009001,77.61966365
3.904,0.017451284,77.61966365
3.905,-0.002341051,77.61966365
3.906,-0.02309108,77.61966365
3.907,-0.043202646,77.61966365
3.908,-0.060441132,77.61966365
3.909,-0.073848843,77.61966365
3.91,-0.082148854,77.61966365
3.911,-0.084702704,77.61966365
3.912,-0.081829623,77.61966365
3.913,-0.074168074,77.61966365
3.914,-0.06267575,77.61966365
3.915,-0.048948808,77.61966365
3.916,-0.034583404,77.61966365
3.917,-0.021175693,77.61966365
3.918,-0.010321832,77.61966365
3.919,-0.003617976,77.61966365
3.92,-0.00202182,77.61966365
3.921,-0.005852595,77.61966365
3.922,-0.014791069,77.61966365
3.923,-0.028837242,77.61966365
3.924,-0.046394959,77.61966365
3.925,-0.066506525,77.61966365
3.926,-0.086937323,77.61966365
3.927,-0.106091195,77.61966365
3.928,-0.122691218,77.61966365
3.929,-0.135141236,77.61966365
3.93,-0.142164322,77.61966365
3.931,-0.143760478,77.61966365
3.932,-0.140248935,77.61966365
3.933,-0.131629692,77.61966365
3.934,-0.119498906,77.61966365
3.935,-0.105133502,77.61966365
3.936,-0.090448866,77.61966365
3.937,-0.076721924,77.61966365
3.938,-0.065868063,77.61966365
3.939,-0.059164207,77.61966365
3.94,-0.05724882,77.61966365
3.941,-0.060760363,77.61966365
3.942,-0.069379606,77.61966365
3.943,-0.081829623,77.61966365
3.944,-0.097471953,77.61966365
3.945,-0.114710438,77.61966365
3.946,-0.131948923,77.61966365
3.947,-0.147591253,77.61966365
3.948,-0.159722039,77.61966365
3.949,-0.167702819,77.61966365
3.95,-0.170256669,77.61966365
3.951,-0.167064357,77.61966365
3.952,-0.158445114,77.61966365
3.953,-0.145037403,77.61966365
3.954,-0.128756611,77.61966365
3.955,-0.110560432,77.61966365
3.956,-0.093002716,77.61966365
3.957,-0.076721924,77.61966365
3.958,-0.064271906,77.61966365
3.959,-0.055971895,77.61966365
3.96,-0.053418045,77.61966365
3.961,-0.056610357,77.61966365
3.962,-0.064910369,77.61966365
3.963,-0.07831808,77.61966365
3.964,-0.094598872,77.61966365
3.965,-0.113114282,77.61966365
3.966,-0.131310461,77.61966365
3.967,-0.147910484,77.61966365
3.968,-0.160998964,77.61966365
3.969,-0.169618206,77.61966365
3.97,-0.172491287,77.61966365
3.971,-0.169618206,77.61966365
3.972,-0.161318195,77.61966365
3.973,-0.148548946,77.61966365
3.974,-0.132587386,77.61966365
3.975,-0.114710438,77.61966365
3.976,-0.09683349,77.61966365
3.977,-0.080871929,77.61966365
3.978,-0.068421912,77.61966365
3.979,-0.060441132,77.61966365
3.98,-0.057887282,77.61966365
3.981,-0.061398826,77.61966365
3.982,-0.070337299,77.61966365
3.983,-0.084064242,77.61966365
3.984,-0.101302727,77.61966365
3.985,-0.120775831,77.61966365
3.986,-0.140248935,77.61966365
3.987,-0.158764345,77.61966365
3.988,-0.173768212,77.61966365
3.989,-0.184941305,77.61966365
3.99,-0.191006698,77.61966365
3.991,-0.191964391,77.61966365
3.992,-0.187495154,77.61966365
3.993,-0.178875912,77.61966365
3.994,-0.167383588,77.61966365
3.995,-0.154614339,77.61966365
3.996,-0.14152586,77.61966365
3.997,-0.130033536,77.61966365
3.998,-0.121414293,77.61966365
3.999,-0.116625825,77.61966365
4,-0.115668132,77.61966365
4.001,-0.119179675,77.61966365
4.002,-0.126202762,77.61966365
4.003,-0.135141236,77.61966365
4.004,-0.145037403,77.61966365
4.005,-0.153975877,77.61966365
4.006,-0.159722039,77.61966365
4.007,-0.159722039,77.61966365
4.008,-0.152379721,77.61966365
4.009,-0.135460467,77.61966365
4.01,-0.107687351,77.61966365
4.011,-0.068741143,77.61966365
4.012,-0.018941074,77.61966365
4.013,0.040435931,77.61966365
4.014,0.109070642,77.61966365
4.015,0.183770745,77.61966365
4.016,0.262620855,77.61966365
4.017,0.342428658,77.61966365
4.018,0.420959536,77.61966365
4.019,0.49565964,77.61966365
4.02,0.565571275,77.61966365
4.021,0.629417518,77.61966365
4.022,0.685921442,77.61966365
4.023,0.735083049,77.61966365
4.024,0.775944644,77.61966365
4.025,0.807867765,77.61966365
4.026,0.830852412,77.61966365
4.027,0.844579354,77.61966365
4.028,0.849687054,77.61966365
4.029,0.846175511,77.61966365
4.03,0.835002418,77.61966365
4.031,0.816487008,77.61966365
4.032,0.79062928,77.61966365
4.033,0.756790771,77.61966365
4.034,0.715609945,77.61966365
4.035,0.666129107,77.61966365
4.036,0.60898672,77.61966365
4.037,0.544182784,77.61966365
4.038,0.471717299,72.46376812
4.039,0.393186421,72.46376812
4.04,0.309547843,72.46376812
4.041,0.223036184,72.46376812
4.042,0.135886064,72.46376812
4.043,0.05065133,72.46376812
4.044,-0.029794936,72.46376812
4.045,-0.103856577,72.46376812
4.046,-0.168660513,72.46376812
4.047,-0.221972125,72.46376812
4.048,-0.263152952,72.46376812
4.049,-0.290926067,72.46376812
4.05,-0.305291472,72.46376812
4.051,-0.307206859,72.46376812
4.052,-0.298268385,72.46376812
4.053,-0.280710668,72.46376812
4.054,-0.256768327,72.46376812
4.055,-0.229314443,72.46376812
4.056,-0.201541328,72.46376812
4.057,-0.175364368,72.46376812
4.058,-0.153656646,72.46376812
4.059,-0.137375854,72.46376812
4.06,-0.128118149,72.46376812
4.061,-0.125564299,72.46376812
4.062,-0.129395074,72.46376812
4.063,-0.138652779,72.46376812
4.064,-0.151741259,72.46376812
4.065,-0.167064357,72.46376812
4.066,-0.182706686,72.46376812
4.067,-0.197072091,72.46376812
4.068,-0.208245183,72.46376812
4.069,-0.21526827,72.46376812
4.07,-0.216864426,72.46376812
4.071,-0.213352883,72.46376812
4.072,-0.205372102,72.46376812
4.073,-0.193241316,72.46376812
4.074,-0.178875912,72.46376812
4.075,-0.163552813,72.46376812
4.076,-0.148868178,72.46376812
4.077,-0.136737392,72.46376812
4.078,-0.12843738,72.46376812
4.079,-0.124925837,72.46376812
4.08,-0.126521993,72.46376812
4.081,-0.133545079,72.46376812
4.082,-0.144718172,72.46376812
4.083,-0.159402808,72.46376812
4.084,-0.176002831,72.46376812
4.085,-0.192922085,72.46376812
4.086,-0.208564414,72.46376812
4.087,-0.221652894,72.46376812
4.088,-0.230591368,72.46376812
4.089,-0.234102911,72.46376812
4.09,-0.231549062,72.46376812
4.091,-0.223887513,72.46376812
4.092,-0.211118264,72.46376812
4.093,-0.194837472,72.46376812
4.094,-0.176641293,72.46376812
4.095,-0.157806652,72.46376812
4.096,-0.140568166,72.46376812
4.097,-0.126202762,72.46376812
4.098,-0.115987363,72.46376812
4.099,-0.110879663,72.46376812
4.1,-0.111837357,72.46376812
4.101,-0.11790275,72.46376812
4.102,-0.129075843,72.46376812
4.103,-0.143122016,72.46376812
4.104,-0.159402808,72.46376812
4.105,-0.176002831,72.46376812
4.106,-0.191325929,72.46376812
4.107,-0.203456715,72.46376812
4.108,-0.211437495,72.46376812
4.109,-0.214310576,72.46376812
4.11,-0.211437495,72.46376812
4.111,-0.203137484,72.46376812
4.112,-0.190368235,72.46376812
4.113,-0.174087443,72.46376812
4.114,-0.156210496,72.46376812
4.115,-0.138014316,72.46376812
4.116,-0.121095062,72.46376812
4.117,-0.107687351,72.46376812
4.118,-0.098429646,72.46376812
4.119,-0.094598872,72.46376812
4.12,-0.096195028,72.46376812
4.121,-0.102898883,72.46376812
4.122,-0.114391207,72.46376812
4.123,-0.128756611,72.46376812
4.124,-0.145037403,72.46376812
4.125,-0.161318195,72.46376812
4.126,-0.176322062,72.46376812
4.127,-0.187814386,72.46376812
4.128,-0.194518241,72.46376812
4.129,-0.196114397,72.46376812
4.13,-0.191964391,72.46376812
4.131,-0.182387455,72.46376812
4.132,-0.168660513,72.46376812
4.133,-0.15206049,72.46376812
4.134,-0.133864311,72.46376812
4.135,-0.115668132,72.46376812
4.136,-0.099706571,72.46376812
4.137,-0.086937323,72.46376812
4.138,-0.078956542,72.46376812
4.139,-0.076402693,72.46376812
4.14,-0.079595005,72.46376812
4.141,-0.088214247,72.46376812
4.142,-0.100983496,72.46376812
4.143,-0.116945056,72.46376812
4.144,-0.134183542,72.46376812
4.145,-0.151102796,72.46376812
4.146,-0.165787432,72.46376812
4.147,-0.176641293,72.46376812
4.148,-0.183025917,72.46376812
4.149,-0.18366438,72.46376812
4.15,-0.178875912,72.46376812
4.151,-0.168341282,72.46376812
4.152,-0.153656646,72.46376812
4.153,-0.136098929,72.46376812
4.154,-0.116945056,72.46376812
4.155,-0.098110415,72.46376812
4.156,-0.081191161,72.46376812
4.157,-0.06778345,72.46376812
4.158,-0.059164207,72.46376812
4.159,-0.056291126,72.46376812
4.16,-0.059164207,72.46376812
4.161,-0.067464219,72.46376812
4.162,-0.080233467,72.46376812
4.163,-0.095875796,72.46376812
4.164,-0.113114282,72.46376812
4.165,-0.129714305,72.46376812
4.166,-0.144398941,72.46376812
4.167,-0.155252802,72.46376812
4.168,-0.161318195,72.46376812
4.169,-0.161956657,72.46376812
4.17,-0.156848958,72.46376812
4.171,-0.146314328,72.46376812
4.172,-0.131629692,72.46376812
4.173,-0.113752744,72.46376812
4.174,-0.094598872,72.46376812
4.175,-0.07576423,72.46376812
4.176,-0.059164207,72.46376812
4.177,-0.046394959,72.46376812
4.178,-0.038414178,72.46376812
4.179,-0.035860329,72.46376812
4.18,-0.038733409,72.46376812
4.181,-0.047033421,72.46376812
4.182,-0.059164207,72.46376812
4.183,-0.074168074,72.46376812
4.184,-0.090768097,72.46376812
4.185,-0.106410426,72.46376812
4.186,-0.1204566,72.46376812
4.187,-0.130352767,72.46376812
4.188,-0.135779698,72.46376812
4.189,-0.135141236,72.46376812
4.19,-0.129395074,72.46376812
4.191,-0.11790275,72.46376812
4.192,-0.102898883,72.46376812
4.193,-0.085021935,72.46376812
4.194,-0.065868063,72.46376812
4.195,-0.047671883,72.46376812
4.196,-0.031710323,72.46376812
4.197,-0.019579537,72.46376812
4.198,-0.012237219,72.46376812
4.199,-0.010321832,72.46376812
4.2,-0.013833375,72.46376812
4.201,-0.022452618,72.46376812
4.202,-0.034583404,72.46376812
4.203,-0.048948808,72.46376812
4.204,-0.063952675,72.46376812
4.205,-0.07831808,72.46376812
4.206,-0.090129635,72.46376812
4.207,-0.098429646,72.46376812
4.208,-0.101621958,72.46376812
4.209,-0.099068109,72.46376812
4.21,-0.091087328,72.46376812
4.211,-0.07831808,72.46376812
4.212,-0.061398826,72.46376812
4.213,-0.041925722,72.46376812
4.214,-0.021814155,72.46376812
4.215,-0.002341051,72.46376812
4.216,0.014578203,72.46376812
4.217,0.027666683,72.46376812
4.218,0.035966694,72.46376812
4.219,0.038839775,72.46376812
4.22,0.036605157,72.46376812
4.221,0.029262839,72.46376812
4.222,0.018408977,72.46376812
4.223,0.005001267,72.46376812
4.224,-0.009044907,72.46376812
4.225,-0.022452618,72.46376812
4.226,-0.033306479,72.46376812
4.227,-0.040329566,72.46376812
4.228,-0.041925722,72.46376812
4.229,-0.038414178,72.46376812
4.23,-0.029156473,72.46376812
4.231,-0.015429531,72.46376812
4.232,0.001808954,72.46376812
4.233,0.020324365,72.46376812
4.234,0.039797469,72.46376812
4.235,0.057674417,72.46376812
4.236,0.072997515,72.46376812
4.237,0.084170607,72.46376812
4.238,0.090236,72.46376812
4.239,0.090874463,72.46376812
4.24,0.086405226,72.46376812
4.241,0.077147521,72.46376812
4.242,0.064697503,72.46376812
4.243,0.050012867,72.46376812
4.244,0.035009001,72.46376812
4.245,0.021282058,72.46376812
4.246,0.010428197,72.46376812
4.247,0.004362804,72.46376812
4.248,0.003405111,72.46376812
4.249,0.007555116,72.46376812
4.25,0.017770515,72.46376812
4.251,0.03213592,72.46376812
4.252,0.050012867,72.46376812
4.253,0.069805203,72.46376812
4.254,0.089597538,72.46376812
4.255,0.107793717,72.46376812
4.256,0.122797584,72.46376812
4.257,0.133332214,72.46376812
4.258,0.138759144,72.46376812
4.259,0.138439913,72.46376812
4.26,0.132693751,72.46376812
4.261,0.122478353,72.46376812
4.262,0.109070642,72.46376812
4.263,0.093109081,72.46376812
4.264,0.077147521,72.46376812
4.265,0.062143654,72.46376812
4.266,0.050332099,72.46376812
4.267,0.042989781,72.46376812
4.268,0.040755162,72.46376812
4.269,0.043947474,72.46376812
4.27,0.052247486,72.46376812
4.271,0.065335966,72.46376812
4.272,0.081297526,72.46376812
4.273,0.098855243,72.46376812
4.274,0.11641296,72.46376812
4.275,0.13237452,72.46376812
4.276,0.144824537,72.46376812
4.277,0.152805318,72.46376812
4.278,0.155039936,72.46376812
4.279,0.151528393,72.46376812
4.28,0.142589919,72.46376812
4.281,0.129182208,72.46376812
4.282,0.112262954,72.46376812
4.283,0.094066775,72.46376812
4.284,0.075551364,72.46376812
4.285,0.05863211,72.46376812
4.286,0.044905168,72.46376812
4.287,0.035328232,72.46376812
4.288,0.031497457,72.46376812
4.289,0.032774382,72.46376812
4.29,0.039478237,72.46376812
4.291,0.050332099,72.46376812
4.292,0.064378272,72.46376812
4.293,0.080020601,72.46376812
4.294,0.095024468,72.46376812
4.295,0.108432179,72.46376812
4.296,0.118328347,72.46376812
4.297,0.123436046,72.46376812
4.298,0.123116815,72.46376812
4.299,0.117051422,72.46376812
4.3,0.105559098,72.46376812
4.301,0.089597538,72.46376812
4.302,0.070762896,72.46376812
4.303,0.05065133,72.46376812
4.304,0.030858995,72.46376812
4.305,0.012662816,72.46376812
4.306,-0.001702589,72.46376812
4.307,-0.011917988,72.46376812
4.308,-0.016706456,72.46376812
4.309,-0.015748762,72.46376812
4.31,-0.009364138,72.46376812
4.311,0.001489723,72.46376812
4.312,0.015216665,72.46376812
4.313,0.030539764,72.46376812
4.314,0.045862862,72.46376812
4.315,0.058951341,72.46376812
4.316,0.068528278,72.46376812
4.317,0.073316746,72.46376812
4.318,0.072359052,72.46376812
4.319,0.065655197,72.46376812
4.32,0.053524411,72.46376812
4.321,0.03756285,72.46376812
4.322,0.018408977,72.46376812
4.323,-0.001383358,72.46376812
4.324,-0.021175693,72.46376812
4.325,-0.038733409,72.46376812
4.326,-0.052779583,72.46376812
4.327,-0.062037288,72.46376812
4.328,-0.065868063,72.46376812
4.329,-0.063633444,72.46376812
4.33,-0.056291126,72.46376812
4.331,-0.044479571,72.46376812
4.332,-0.030114167,72.46376812
4.333,-0.013833375,72.46376812
4.334,0.001489723,72.46376812
4.335,0.014578203,72.46376812
4.336,0.024155139,72.46376812
4.337,0.028943607,72.46376812
4.338,0.027985914,72.46376812
4.339,0.021920521,72.46376812
4.34,0.010428197,72.46376812
4.341,-0.004894901,72.46376812
4.342,-0.02309108,72.46376812
4.343,-0.042244953,72.46376812
4.344,-0.061079594,72.46376812
4.345,-0.077360386,72.46376812
4.346,-0.090129635,72.46376812
4.347,-0.097791184,72.46376812
4.348,-0.100025802,72.46376812
4.349,-0.096514259,72.46376812
4.35,-0.087895016,72.46376812
4.351,-0.075125768,72.46376812
4.352,-0.059483438,72.46376812
4.353,-0.042564184,72.46376812
4.354,-0.025964161,72.46376812
4.355,-0.011917988,72.46376812
4.356,-0.001702589,72.46376812
4.357,0.004043573,72.46376812
4.358,0.004043573,72.46376812
4.359,-0.001383358,72.46376812
4.36,-0.011917988,72.46376812
4.361,-0.026602623,72.46376812
4.362,-0.043841109,72.46376812
4.363,-0.062356519,72.46376812
4.364,-0.079914236,72.46376812
4.365,-0.095556565,72.46376812
4.366,-0.107048889,72.46376812
4.367,-0.113433513,72.46376812
4.368,-0.114391207,72.46376812
4.369,-0.109602739,72.46376812
4.37,-0.099706571,72.46376812
4.371,-0.085979629,72.46376812
4.372,-0.069379606,72.46376812
4.373,-0.052460352,72.46376812
4.374,-0.035860329,72.46376812
4.375,-0.022133386,72.46376812
4.376,-0.011917988,72.46376812
4.377,-0.006810288,72.46376812
4.378,-0.006810288,72.46376812
4.379,-0.012237219,72.46376812
4.38,-0.022133386,72.46376812
4.381,-0.035541097,72.46376812
4.382,-0.051502658,72.46376812
4.383,-0.06778345,72.46376812
4.384,-0.083425779,72.46376812
4.385,-0.096195028,72.46376812
4.386,-0.10481427,72.46376812
4.387,-0.108645045,72.46376812
4.388,-0.107048889,72.46376812
4.389,-0.100025802,72.46376812
4.39,-0.088214247,72.46376812
4.391,-0.072891149,72.46376812
4.392,-0.055014201,72.46376812
4.393,-0.037137253,72.46376812
4.394,-0.020217999,72.46376812
4.395,-0.006171826,72.46376812
4.396,0.003405111,72.46376812
4.397,0.007874347,72.46376812
4.398,0.007235885,72.46376812
4.399,0.001170492,72.46376812
4.4,-0.009683369,72.46376812
4.401,-0.024048774,72.46376812
4.402,-0.040648797,72.46376812
4.403,-0.057568051,72.46376812
4.404,-0.072891149,72.46376812
4.405,-0.085660398,72.46376812
4.406,-0.093960409,72.46376812
4.407,-0.097152721,72.46376812
4.408,-0.094598872,72.46376812
4.409,-0.086618091,72.46376812
4.41,-0.074168074,72.46376812
4.411,-0.058206513,72.46376812
4.412,-0.040648797,72.46376812
4.413,-0.022771849,72.46376812
4.414,-0.006491057,72.46376812
4.415,0.006278191,72.46376812
4.416,0.014897434,72.46376812
4.417,0.018408977,72.46376812
4.418,0.016174359,72.46376812
4.419,0.00851281,72.46376812
4.42,-0.002979514,72.46376812
4.421,-0.018302612,72.46376812
4.422,-0.035541097,72.46376812
4.423,-0.052779583,72.46376812
4.424,-0.068741143,72.46376812
4.425,-0.081510392,72.46376812
4.426,-0.089810403,72.46376812
4.427,-0.092683484,72.46376812
4.428,-0.090129635,72.46376812
4.429,-0.082148854,72.46376812
4.43,-0.069379606,72.46376812
4.431,-0.053098814,72.46376812
4.432,-0.035221866,72.46376812
4.433,-0.017344918,72.46376812
4.434,-0.001064126,72.46376812
4.435,0.011385891,72.46376812
4.436,0.019366671,72.46376812
4.437,0.022239752,72.46376812
4.438,0.019366671,72.46376812
4.439,0.01106666,72.46376812
4.44,-0.001383358,72.46376812
4.441,-0.017664149,72.46376812
4.442,-0.035221866,72.46376812
4.443,-0.052779583,72.46376812
4.444,-0.068421912,72.46376812
4.445,-0.080871929,72.46376812
4.446,-0.088533479,72.46376812
4.447,-0.090768097,72.46376812
4.448,-0.087256554,72.46376812
4.449,-0.07831808,72.46376812
4.45,-0.064591138,72.46376812
4.451,-0.047671883,72.46376812
4.452,-0.028837242,72.46376812
4.453,-0.010641063,72.46376812
4.454,0.005639729,72.46376812
4.455,0.017770515,72.46376812
4.456,0.025432064,72.46376812
4.457,0.027666683,72.46376812
4.458,0.024474371,72.46376812
4.459,0.015535897,72.46376812
4.46,0.002766648,72.46376812
4.461,-0.013514144,72.46376812
4.462,-0.031391092,72.46376812
