sec,mV,BPM
0,0.007218428,0
0.001,0.007218428,0
0.002,0.007218428,0
0.003,0.006260821,0
0.004,0.003707202,0
0.005,-0.000123227,0
0.006,-0.006188073,0
0.007,-0.01384893,0
0.008,-0.023425003,0
0.009,-0.034597087,0
0.01,-0.046088373,0
0.011,-0.057898862,0
0.012,-0.069070947,0
0.013,-0.079285424,0
0.014,-0.087584686,0
0.015,-0.093649532,0
0.016,-0.097799163,0
0.017,-0.099075973,0
0.018,-0.097479961,0
0.019,-0.093011127,0
0.02,-0.085669472,0
0.021,-0.076093399,0
0.022,-0.064921315,0
0.023,-0.052791624,0
0.024,-0.04034273,0
0.025,-0.028532241,0
0.026,-0.017998562,0
0.027,-0.009380097,0
0.028,-0.003315251,0
0.029,-0.000123227,0
0.03,0.000195976,0
0.031,-0.002357644,0
0.032,-0.007784085,0
0.033,-0.014806538,0
0.034,-0.023425003,0
0.035,-0.032043467,0
0.036,-0.040023528,0
0.037,-0.046407576,0
0.038,-0.050876409,0
0.039,-0.052791624,0
0.04,-0.051834017,0
0.041,-0.048641993,0
0.042,-0.043215552,0
0.043,-0.036193099,0
0.044,-0.028213039,0
0.045,-0.020232978,0
0.046,-0.012572121,0
0.047,-0.006188073,0
0.048,-0.002038441,0
0.049,-0.000123227,0
0.05,-0.001080834,0
0.051,-0.004911263,0
0.052,-0.011295311,0
0.053,-0.019275371,0
0.054,-0.028532241,0
0.055,-0.037789111,0
0.056,-0.046088373,0
0.057,-0.052791624,0
0.058,-0.057260458,0
0.059,-0.05885647,0
0.06,-0.05757966,0
0.061,-0.053110826,0
0.062,-0.046407576,0
0.063,-0.037789111,0
0.064,-0.028213039,0
0.065,-0.017998562,0
0.066,-0.008422489,0
0.067,-0.000123227,0
0.068,0.005941619,0
0.069,0.009452845,0
0.07,0.01009125,0
0.071,0.008176036,0
0.072,0.004026404,0
0.073,-0.002038441,0
0.074,-0.009060894,0
0.075,-0.016083347,0
0.076,-0.022148193,0
0.077,-0.026936229,0
0.078,-0.029170646,0
0.079,-0.028851443,0
0.08,-0.025340217,0
0.081,-0.018956169,0
0.082,-0.010018501,0
0.083,0.000515178,0
0.084,0.011687262,0
0.085,0.023816954,0
0.086,0.034989038,0
0.087,0.04456511,0
0.088,0.051587563,0
0.089,0.056056397,0
0.09,0.057333206,0
0.091,0.055417992,0
0.092,0.050949158,0
0.093,0.04456511,0
0.094,0.036904252,0
0.095,0.029243394,0
0.096,0.021901739,0
0.097,0.015836893,0
0.098,0.012325667,0
0.099,0.01136806,0
0.1,0.013283274,0
0.101,0.01807131,0
0.102,0.025732168,0
0.103,0.034989038,0
0.104,0.045522717,0
0.105,0.056375599,0
0.106,0.066270874,0
0.107,0.074570136,0
0.108,0.080954184,0
0.109,0.084146208,0
0.11,0.084784613,0
0.111,0.082230994,0
0.112,0.077442958,0
0.113,0.070420505,0
0.114,0.062121242,0
0.115,0.053502777,0
0.116,0.045203515,0
0.117,0.038181062,0
0.118,0.033073823,0
0.119,0.030201002,0
0.12,0.029881799,0
0.121,0.032116216,0
0.122,0.03658505,0
0.123,0.042330693,0
0.124,0.048714741,0
0.125,0.055417992,0
0.126,0.060844433,0
0.127,0.064674862,0
0.128,0.065951671,0
0.129,0.064674862,0
0.13,0.06052523,0
0.131,0.053502777,0
0.132,0.044245908,0
0.133,0.033393026,0
0.134,0.021582537,0
0.135,0.009772048,0
0.136,-0.001400037,0
0.137,-0.010976109,0
0.138,-0.018317764,0
0.139,-0.0231058,0
0.14,-0.024701812,0
0.141,-0.023744205,0
0.142,-0.020232978,0
0.143,-0.01512574,0
0.144,-0.008422489,0
0.145,-0.001719239,0
0.146,0.004345607,0
0.147,0.008495238,0
0.148,0.010729655,0
0.149,0.010729655,0
0.15,0.008176036,0
0.151,0.003388,0
0.152,-0.003953656,0
0.153,-0.012891323,0
0.154,-0.022467395,0
0.155,-0.032043467,0
0.156,-0.04034273,0
0.157,-0.047045981,0
0.158,-0.051195612,0
0.159,-0.052791624,0
0.16,-0.051514814,0
0.161,-0.048003588,0
0.162,-0.041938742,0
0.163,-0.034597087,0
0.164,-0.026297824,0
0.165,-0.017998562,0
0.166,-0.010337704,0
0.167,-0.004592061,0
0.168,-0.001080834,0
0.169,-0.000442429,0
0.17,-0.002676846,0
0.171,-0.00714568,0
0.172,-0.014168133,0
0.173,-0.022467395,0
0.174,-0.031405063,0
0.175,-0.04034273,0
0.176,-0.04832279,0
0.177,-0.054387636,0
0.178,-0.058218065,0
0.179,-0.059175672,0
0.18,-0.057260458,0
0.181,-0.052791624,0
0.182,-0.046088373,0
0.183,-0.037469908,0
0.184,-0.028532241,0
0.185,-0.019594574,0
0.186,-0.011614513,0
0.187,-0.005230465,0
0.188,-0.001400037,0
0.189,-0.000123227,0
0.19,-0.001719239,0
0.191,-0.00586887,0
0.192,-0.011933716,0
0.193,-0.019913776,0
0.194,-0.028532241,0
0.195,-0.037469908,0
0.196,-0.045130766,0
0.197,-0.051195612,0
0.198,-0.054706838,0
0.199,-0.055664446,0
0.2,-0.053430029,0
0.201,-0.048961195,0
0.202,-0.041938742,0
0.203,-0.03363948,0
0.204,-0.024701812,0
0.205,-0.015764145,0
0.206,-0.008103287,0
0.207,-0.002038441,0
0.208,0.001791988,0
0.209,0.002749595,0
0.21,0.001153583,0
0.211,-0.002676846,0
0.212,-0.009060894,0
0.213,-0.016721752,0
0.214,-0.025340217,0
0.215,-0.03363948,0
0.216,-0.040661932,0
0.217,-0.045769171,0
0.218,-0.04832279,0
0.219,-0.048003588,0
0.22,-0.045130766,0
0.221,-0.039704325,0
0.222,-0.032043467,0
0.223,-0.023425003,0
0.224,-0.014487335,0
0.225,-0.005549668,0
0.226,0.00211119,0
0.227,0.007537631,0
0.228,0.010729655,0
0.229,0.010410453,0
0.23,0.007218428,0
0.231,0.001153583,0
0.232,-0.007784085,0
0.233,-0.018317764,0
0.234,-0.029809051,0
0.235,-0.04161954,0
0.236,-0.052153219,0
0.237,-0.061090886,0
0.238,-0.067794137,0
0.239,-0.071624566,0
0.24,-0.072262971,0
0.241,-0.070347756,0
0.242,-0.066198125,0
0.243,-0.059814077,0
0.244,-0.052472421,0
0.245,-0.044811564,0
0.246,-0.037150706,0
0.247,-0.030128253,0
0.248,-0.024063407,0
0.249,-0.018636966,0
0.25,-0.014168133,0
0.251,-0.009699299,0
0.252,-0.004592061,0
0.253,0.002749595,0
0.254,0.013283274,0
0.255,0.02860499,0
0.256,0.049991551,0
0.257,0.078400565,0
0.258,0.114470437,0
0.259,0.158839571,0
0.26,0.211188766,0
0.261,0.270241211,0
0.262,0.335039299,0
0.263,0.403029412,0
0.264,0.472615536,0
0.265,0.541882458,0
0.266,0.609872571,0
0.267,0.674351457,0
0.268,0.733403902,0
0.269,0.785114692,0
0.27,0.827887814,0
0.271,0.859808054,0
0.272,0.880237008,0
0.273,0.888536271,0
0.274,0.88438664,0
0.275,0.869064924,0
0.276,0.843209529,0
0.277,0.808416467,0
0.278,0.765962547,0
0.279,0.716486174,0
0.28,0.661902563,0
0.281,0.60316932,0
0.282,0.541563256,0
0.283,0.477722775,0
0.284,0.413243889,0
0.285,0.348765003,0
0.286,0.285243724,0
0.287,0.222999255,0
0.288,0.162989203,0
0.289,0.106171174,0
0.29,0.053183575,0
0.291,0.005622416,0
0.292,-0.036193099,0
0.293,-0.071624566,0
0.294,-0.099714378,0
0.295,-0.120781736,0
0.296,-0.133869035,0
0.297,-0.139295476,0
0.298,-0.137699464,0
0.299,-0.129400201,0
0.3,-0.1159937,0
0.301,-0.09875677,0
0.302,-0.078647019,0
0.303,-0.057260458,0
0.304,-0.036193099,0
0.305,-0.016721752,0
0.306,-0.000123227,0
0.307,0.012325667,0
0.308,0.020944132,0
0.309,0.025412966,0
0.31,0.025093763,0
0.311,0.020944132,0
0.312,0.013602477,0
0.313,0.004345607,0
0.314,-0.006826477,0
0.315,-0.017998562,0
0.316,-0.028532241,0
0.317,-0.036831504,0
0.318,-0.042896349,0
0.319,-0.045769171,0
0.32,-0.045769171,0
0.321,-0.043215552,0
0.322,-0.038108313,0
0.323,-0.032043467,0
0.324,-0.025021015,0
0.325,-0.018636966,0
0.326,-0.012891323,0
0.327,-0.009380097,0
0.328,-0.008103287,0
0.329,-0.009699299,0
0.33,-0.013529728,0
0.331,-0.019913776,0
0.332,-0.028213039,0
0.333,-0.037150706,0
0.334,-0.046726778,0
0.335,-0.055345243,0
0.336,-0.062367696,0
0.337,-0.067155732,0
0.338,-0.068751744,0
0.339,-0.067155732,0
0.34,-0.062686898,0
0.341,-0.055664446,0
0.342,-0.046407576,0
0.343,-0.036193099,0
0.344,-0.025340217,0
0.345,-0.015444942,0
0.346,-0.006826477,0
0.347,-0.000761632,0
0.348,0.002430392,0
0.349,0.002749595,0
0.35,0.000195976,0
0.351,-0.004911263,0
0.352,-0.011933716,0
0.353,-0.020232978,0
0.354,-0.029489848,0
0.355,-0.038427516,0
0.356,-0.046407576,0
0.357,-0.052153219,0
0.358,-0.054706838,0
0.359,-0.054068433,0
0.36,-0.050238005,0
0.361,-0.043853956,0
0.362,-0.035235492,0
0.363,-0.025659419,0
0.364,-0.015764145,0
0.365,-0.006507275,0
0.366,0.001472785,0
0.367,0.007218428,0
0.368,0.010410453,0
0.369,0.010729655,0
0.37,0.008176036,0
0.371,0.004026404,0
0.372,-0.002357644,0
0.373,-0.009380097,0
0.374,-0.016721752,0
0.375,-0.023425003,0
0.376,-0.028532241,0
0.377,-0.032043467,0
0.378,-0.032681872,0
0.379,-0.030766658,0
0.38,-0.025978622,0
0.381,-0.018956169,0
0.382,-0.010337704,0
0.383,-0.001080834,0
0.384,0.007856833,0
0.385,0.016794501,0
0.386,0.023816954,0
0.387,0.028924192,0
0.388,0.031477811,0
0.389,0.031158609,0
0.39,0.027966585,0
0.391,0.022220942,0
0.392,0.014560084,0
0.393,0.006260821,0
0.394,-0.002996049,0
0.395,-0.011295311,0
0.396,-0.017679359,0
0.397,-0.02182899,0
0.398,-0.0231058,0
0.399,-0.021509788,0
0.4,-0.016721752,0
0.401,-0.009699299,0
0.402,-0.001080834,0
0.403,0.008176036,0
0.404,0.017752108,0
0.405,0.026370573,0
0.406,0.033393026,0
0.407,0.038181062,0
0.408,0.040096276,0
0.409,0.039138669,0
0.41,0.03530824,0
0.411,0.029243394,0
0.412,0.021582537,0
0.413,0.012964072,0
0.414,0.004664809,0
0.415,-0.002996049,0
0.416,-0.009380097,0
0.417,-0.013210526,0
0.418,-0.014168133,0
0.419,-0.012252918,0
0.42,-0.007464882,0
0.421,-0.000442429,0
0.422,0.007856833,0
0.423,0.017752108,0
0.424,0.02732818,0
0.425,0.036265847,0
0.426,0.043607503,0
0.427,0.048714741,0
0.428,0.050949158,0
0.429,0.050310753,0
0.43,0.046799527,0
0.431,0.041053883,0
0.432,0.033712228,0
0.433,0.025093763,0
0.434,0.016794501,0
0.435,0.009133643,0
0.436,0.003707202,0
0.437,0.000195976,0
0.438,-0.000123227,0
0.439,0.002430392,0
0.44,0.007537631,0
0.441,0.015517691,0
0.442,0.025093763,0
0.443,0.03530824,0
0.444,0.045203515,0
0.445,0.054779587,0
0.446,0.062440445,0
0.447,0.067866886,0
0.448,0.070739707,0
0.449,0.070739707,0
0.45,0.067547683,0
0.451,0.062121242,0
0.452,0.054460385,0
0.453,0.046161122,0
0.454,0.037861859,0
0.455,0.030520204,0
0.456,0.024774561,0
0.457,0.021263334,0
0.458,0.020944132,0
0.459,0.023178549,0
0.46,0.028285787,0
0.461,0.035627443,0
0.462,0.044884312,0
0.463,0.054779587,0
0.464,0.064355659,0
0.465,0.073293326,0
0.466,0.080315779,0
0.467,0.085103815,0
0.468,0.08701903,0
0.469,0.086380625,0
0.47,0.083507803,0
0.471,0.078400565,0
0.472,0.072016517,0
0.473,0.065632469,0
0.474,0.059248421,0
0.475,0.054141182,0
0.476,0.050629956,0
0.477,0.049353146,0
0.478,0.05126836,0
0.479,0.055737194,0
0.48,0.063078849,0
0.481,0.072654922,0
0.482,0.083827006,0
0.483,0.095637495,0
0.484,0.107128781,0
0.485,0.117343258,0
0.486,0.125642521,0
0.487,0.131068962,0
0.488,0.133941784,0
0.489,0.133303379,0
0.49,0.130111355,0
0.491,0.124684914,0
0.492,0.117343258,0
0.493,0.109363198,0
0.494,0.101383138,0
0.495,0.094679888,0
0.496,0.089891852,0
0.497,0.087338232,0
0.498,0.087976637,0
0.499,0.091487864,0
0.5,0.097871912,0
0.501,0.106490377,0
0.502,0.116704854,0
0.503,0.127876938,0
0.504,0.139049022,0
0.505,0.148944297,0
0.506,0.156605154,0
0.507,0.162031595,0
0.508,0.16394681,0
0.509,0.162989203,0
0.51,0.159158774,0
0.511,0.15341313,0
0.512,0.146071475,0
0.513,0.137772212,0
0.514,0.129792152,0
0.515,0.122131295,0
0.516,0.116385651,0
0.517,0.112874425,0
0.518,0.111916818,0
0.519,0.113832032,0
0.52,0.118300866,0
0.521,0.125004116,0
0.522,0.132984176,0
0.523,0.141283439,0
0.524,0.149263499,0
0.525,0.156285952,0
0.526,0.16139319,0
0.527,0.16394681,0
0.528,0.163627607,0
0.529,0.160435583,0
0.53,0.15468994,0
0.531,0.14670988,0
0.532,0.137133808,0
0.533,0.126600128,0
0.534,0.116385651,0
0.535,0.107447984,0
0.536,0.100106329,0
0.537,0.095318292,0
0.538,0.092764673,0
0.539,0.093083876,0
0.54,0.095318292,0
0.541,0.099148721,0
0.542,0.10425596,0
0.543,0.109682401,0
0.544,0.114151234,0
0.545,0.117343258,0
0.546,0.118300866,0
0.547,0.116385651,0
0.548,0.111597615,0
0.549,0.103617555,0
0.55,0.092764673,0
0.551,0.079996577,0
0.552,0.065632469,0
0.553,0.050949158,0
0.554,0.03658505,0
0.555,0.023816954,0
0.556,0.012964072,0
0.557,0.005303214,0
0.558,0.000515178,0
0.559,-0.001719239,0
0.56,-0.001080834,0
0.561,0.001791988,0
0.562,0.006260821,0
0.563,0.010729655,0
0.564,0.015198489,0
0.565,0.01807131,0
0.566,0.018709715,0
0.567,0.016794501,0
0.568,0.012644869,0
0.569,0.006260821,0
0.57,-0.002996049,0
0.571,-0.013529728,0
0.572,-0.025340217,0
0.573,-0.037789111,0
0.574,-0.0495996,0
0.575,-0.060133279,0
0.576,-0.068751744,0
0.577,-0.074497387,0
0.578,-0.076731804,0
0.579,-0.076093399,0
0.58,-0.072262971,0
0.581,-0.066198125,0
0.582,-0.058537267,0
0.583,-0.050238005,0
0.584,-0.042577147,0
0.585,-0.036193099,0
0.586,-0.032043467,0
0.587,-0.030766658,0
0.588,-0.03236267,0
0.589,-0.037150706,0
0.59,-0.044492361,0
0.591,-0.053749231,0
0.592,-0.063963708,0
0.593,-0.074497387,0
0.594,-0.084392662,0
0.595,-0.092691925,0
0.596,-0.099075973,0
0.597,-0.102906402,0
0.598,-0.104183211,0
0.599,-0.101948794,0
0.6,-0.097479961,0
0.601,-0.090457508,0
0.602,-0.082158245,0
0.603,-0.07353978,0
0.604,-0.065240518,0
0.605,-0.058218065,0
0.606,-0.053110826,0
0.607,-0.050876409,0
0.608,-0.051195612,0
0.609,-0.054387636,0
0.61,-0.060133279,0
0.611,-0.067474935,0
0.612,-0.075774197,0
0.613,-0.084392662,0
0.614,-0.092691925,0
0.615,-0.10003358,0
0.616,-0.104821616,0
0.617,-0.107375235,0
0.618,-0.107056033,0
0.619,-0.104183211,0
0.62,-0.098437568,0
0.621,-0.09077671,0
0.622,-0.081839043,0
0.623,-0.072901375,0
0.624,-0.064602113,0
0.625,-0.05757966,0
0.626,-0.052472421,0
0.627,-0.049918802,0
0.628,-0.050238005,0
0.629,-0.053430029,0
0.63,-0.059175672,0
0.631,-0.066517327,0
0.632,-0.07481659,0
0.633,-0.083435055,0
0.634,-0.091095913,0
0.635,-0.097479961,0
0.636,-0.10131039,0
0.637,-0.102587199,0
0.638,-0.100991187,0
0.639,-0.096522353,0
0.64,-0.089499901,0
0.641,-0.080881436,0
0.642,-0.071305363,0
0.643,-0.061729291,0
0.644,-0.052791624,0
0.645,-0.045769171,0
0.646,-0.041300337,0
0.647,-0.039385123,0
0.648,-0.04034273,0
0.649,-0.043853956,0
0.65,-0.049918802,0
0.651,-0.057898862,0
0.652,-0.067155732,0
0.653,-0.076731804,0
0.654,-0.085350269,0
0.655,-0.092372722,0
0.656,-0.096841556,0
0.657,-0.098437568,0
0.658,-0.097160758,0
0.659,-0.093011127,0
0.66,-0.086627079,0
0.661,-0.078008614,0
0.662,-0.068432542,0
0.663,-0.058537267,0
0.664,-0.049280397,0
0.665,-0.04161954,0
0.666,-0.035873896,0
0.667,-0.033320277,0
0.668,-0.033958682,0
0.669,-0.037469908,0
0.67,-0.043534754,0
0.671,-0.051834017,0
0.672,-0.061090886,0
0.673,-0.070347756,0
0.674,-0.078647019,0
0.675,-0.085350269,0
0.676,-0.089499901,0
0.677,-0.091415115,0
0.678,-0.090457508,0
0.679,-0.086627079,0
0.68,-0.080243031,0
0.681,-0.071943768,0
0.682,-0.062686898,0
0.683,-0.053110826,0
0.684,-0.044492361,0
0.685,-0.037150706,0
0.686,-0.031724265,0
0.687,-0.029489848,0
0.688,-0.029809051,0
0.689,-0.033001075,0
0.69,-0.038427516,0
0.691,-0.045769171,0
0.692,-0.054068433,0
0.693,-0.062367696,0
0.694,-0.070347756,0
0.695,-0.076731804,0
0.696,-0.080881436,0
0.697,-0.082477448,0
0.698,-0.081200638,0
0.699,-0.077051007,0
0.7,-0.070666959,0
0.701,-0.062367696,0
0.702,-0.053110826,0
0.703,-0.043853956,0
0.704,-0.035235492,0
0.705,-0.028532241,0
0.706,-0.023744205,0
0.707,-0.02182899,0
0.708,-0.0231058,0
0.709,-0.026936229,0
0.71,-0.033001075,0
0.711,-0.040981135,0
0.712,-0.049918802,0
0.713,-0.05885647,0
0.714,-0.067155732,0
0.715,-0.07353978,0
0.716,-0.077370209,0
0.717,-0.078647019,0
0.718,-0.076731804,0
0.719,-0.072262971,0
0.72,-0.06555972,0
0.721,-0.056941255,0
0.722,-0.047365183,0
0.723,-0.037469908,0
0.724,-0.028532241,0
0.725,-0.021509788,0
0.726,-0.017040954,0
0.727,-0.015764145,0
0.728,-0.017040954,0
0.729,-0.020871383,0
0.73,-0.026617027,0
0.731,-0.034277884,0
0.732,-0.042896349,0
0.733,-0.051834017,0
0.734,-0.060133279,0
0.735,-0.06683653,0
0.736,-0.071624566,0
0.737,-0.07353978,0
0.738,-0.072901375,0
0.739,-0.069390149,0
0.74,-0.063644506,0
0.741,-0.05630285,0
0.742,-0.048003588,0
0.743,-0.039385123,0
0.744,-0.031724265,0
0.745,-0.025340217,0
0.746,-0.021509788,0
0.747,-0.020552181,0
0.748,-0.022148193,0
0.749,-0.025978622,0
0.75,-0.032043467,0
0.751,-0.03906592,0
0.752,-0.046726778,0
0.753,-0.054068433,0
0.754,-0.060452482,0
0.755,-0.064921315,0
0.756,-0.067474935,0
0.757,-0.067474935,0
0.758,-0.064602113,0
0.759,-0.059494874,0
0.76,-0.052153219,0
0.761,-0.043215552,0
0.762,-0.033958682,0
0.763,-0.024701812,0
0.764,-0.01640255,0
0.765,-0.010018501,0
0.766,-0.006188073,0
0.767,-0.005230465,0
0.768,-0.00714568,0
0.769,-0.011614513,0
0.77,-0.018317764,0
0.771,-0.026617027,0
0.772,-0.035554694,0
0.773,-0.044173159,0
0.774,-0.051514814,0
0.775,-0.057260458,0
0.776,-0.060133279,0
0.777,-0.060452482,0
0.778,-0.05757966,0
0.779,-0.052153219,0
0.78,-0.044492361,0
0.781,-0.035554694,0
0.782,-0.025659419,0
0.783,-0.016083347,0
0.784,-0.008103287,0
0.785,-0.001719239,0
0.786,0.00211119,0
0.787,0.003068797,0
0.788,0.001153583,0
0.789,-0.003315251,0
0.79,-0.009699299,0
0.791,-0.017998562,0
0.792,-0.026617027,0
0.793,-0.035554694,0
0.794,-0.042896349,0
0.795,-0.048961195,0
0.796,-0.052153219,0
0.797,-0.053110826,0
0.798,-0.050876409,0
0.799,-0.046407576,0
0.8,-0.040023528,0
0.801,-0.03236267,0
0.802,-0.023744205,0
0.803,-0.01512574,0
0.804,-0.007784085,0
0.805,-0.002038441,0
0.806,0.001153583,0
0.807,0.001791988,0
0.808,-0.000442429,0
0.809,-0.004911263,0
0.81,-0.011933716,0
0.811,-0.020552181,0
0.812,-0.029809051,0
0.813,-0.038427516,0
0.814,-0.046407576,0
0.815,-0.052153219,0
0.816,-0.055345243,0
0.817,-0.055664446,0
0.818,-0.053430029,0
0.819,-0.048641993,0
0.82,-0.041938742,0
0.821,-0.03363948,0
0.822,-0.024701812,0
0.823,-0.016083347,0
0.824,-0.008741692,0
0.825,-0.002996049,0
0.826,-0.000123227,0
0.827,0.000195976,0
0.828,-0.002357644,0
0.829,-0.00714568,0
0.83,-0.014168133,0
0.831,-0.022467395,0
0.832,-0.03108586,0
0.833,-0.039704325,0
0.834,-0.046726778,0
0.835,-0.052153219,0
0.836,-0.055345243,0
0.837,-0.055983648,0
0.838,-0.053749231,0
0.839,-0.048641993,0
0.84,-0.041300337,0
0.841,-0.03236267,0
0.842,-0.0231058,0
0.843,-0.014168133,0
0.844,-0.006188073,0
0.845,-0.000761632,0
0.846,0.002430392,0
0.847,0.002749595,0
0.848,0.000515178,0
0.849,-0.003953656,0
0.85,-0.010337704,0
0.851,-0.017998562,0
0.852,-0.026297824,0
0.853,-0.034277884,0
0.854,-0.041300337,0
0.855,-0.046726778,0
0.856,-0.049918802,0
0.857,-0.050557207,0
0.858,-0.048641993,0
0.859,-0.044492361,0
0.86,-0.038108313,0
0.861,-0.030128253,0
0.862,-0.021509788,0
0.863,-0.013210526,0
0.864,-0.006507275,0
0.865,-0.001719239,0
0.866,0.000515178,0
0.867,0.000195976,0
0.868,-0.002357644,0
0.869,-0.007464882,0
0.87,-0.01384893,0
0.871,-0.021509788,0
0.872,-0.029489848,0
0.873,-0.036831504,0
0.874,-0.043215552,0
0.875,-0.047365183,0
0.876,-0.049280397,0
0.877,-0.04832279,0
0.878,-0.044492361,0
0.879,-0.038746718,0
0.88,-0.03108586,0
0.881,-0.022467395,0
0.882,-0.013529728,0
0.883,-0.004911263,0
0.884,0.00211119,0
0.885,0.007218428,0
0.886,0.009772048,0
0.887,0.01009125,0
0.888,0.007218428,0
0.889,0.002430392,0
0.89,-0.004911263,0
0.891,-0.013529728,0
0.892,-0.022467395,0
0.893,-0.03108586,0
0.894,-0.038108313,0
0.895,-0.042896349,0
0.896,-0.045449969,0
0.897,-0.045130766,0
0.898,-0.042257944,0
0.899,-0.037150706,0
0.9,-0.030447455,0
0.901,-0.022786598,0
0.902,-0.014806538,0
0.903,-0.007464882,0
0.904,-0.001400037,0
0.905,0.002430392,0
0.906,0.003707202,0
0.907,0.002430392,0
0.908,-0.001400037,0
0.909,-0.007464882,0
0.91,-0.01512574,0
0.911,-0.023744205,0
0.912,-0.03236267,0
0.913,-0.040661932,0
0.914,-0.047045981,0
0.915,-0.051195612,0
0.916,-0.052791624,0
0.917,-0.051514814,0
0.918,-0.047684385,0
0.919,-0.04161954,0
0.92,-0.03363948,0
0.921,-0.025021015,0
0.922,-0.016083347,0
0.923,-0.008103287,0
0.924,-0.001719239,0
0.925,0.003068797,0
0.926,0.004984012,0
0.927,0.004026404,0
0.928,0.000515178,0
0.929,-0.005230465,0
0.93,-0.012891323,0
0.931,-0.021509788,0
0.932,-0.030447455,0
0.933,-0.038427516,0
0.934,-0.044492361,0
0.935,-0.048641993,0
0.936,-0.0495996,0
0.937,-0.04832279,0
0.938,-0.044173159,0
0.939,-0.037789111,0
0.94,-0.029809051,0
0.941,-0.021190586,0
0.942,-0.012252918,0
0.943,-0.004272858,0
0.944,0.002430392,0
0.945,0.006580024,0
0.946,0.007856833,0
0.947,0.006899226,0
0.948,0.002749595,0
0.949,-0.003634453,0
0.95,-0.011614513,0
0.951,-0.020871383,0
0.952,-0.030447455,0
0.953,-0.03906592,0
0.954,-0.045769171,0
0.955,-0.050238005,0
0.956,-0.051514814,0
0.957,-0.050238005,0
0.958,-0.046088373,0
0.959,-0.039704325,0
0.96,-0.031405063,0
0.961,-0.022148193,0
0.962,-0.012572121,0
0.963,-0.003953656,0
0.964,0.002749595,0
0.965,0.007218428,0
0.966,0.009133643,0
0.967,0.008176036,0
0.968,0.004984012,0
0.969,-0.000761632,0
0.97,-0.008422489,0
0.971,-0.017040954,0
0.972,-0.025659419,0
0.973,-0.033320277,0
0.974,-0.039385123,0
0.975,-0.042896349,0
0.976,-0.043853956,0
0.977,-0.041938742,0
0.978,-0.037150706,0
0.979,-0.030128253,0
0.98,-0.021190586,0
0.981,-0.011295311,0
0.982,-0.001400037,0
0.983,0.007218428,0
0.984,0.014879286,0
0.985,0.020624929,0
0.986,0.023497751,0
0.987,0.023816954,0
0.988,0.021901739,0
0.989,0.017432905,0
0.99,0.011687262,0
0.991,0.005303214,0
0.992,-0.001400037,0
0.993,-0.006826477,0
0.994,-0.010656906,0
0.995,-0.012252918,0
0.996,-0.011295311,0
0.997,-0.007464882,0
0.998,-0.000761632,0
0.999,0.007218428,0
1,0.017432905,0
1.001,0.028285787,0
1.002,0.038819467,0
1.003,0.048395539,0
1.004,0.056056397,0
1.005,0.061163635,0
1.006,0.063398052,0
1.007,0.062759647,0
1.008,0.058929218,0
1.009,0.053183575,0
1.01,0.04584192,0
1.011,0.037542657,0
1.012,0.029881799,0
1.013,0.022859346,0
1.014,0.01807131,0
1.015,0.015517691,0
1.016,0.015836893,0
1.017,0.01934812,0
1.018,0.025732168,0
1.019,0.034350633,0
1.02,0.04456511,0
1.021,0.055737194,0
1.022,0.067228481,0
1.023,0.07776216,0
1.024,0.086699828,0
1.025,0.092764673,0
1.026,0.095956697,0
1.027,0.0962759,0
1.028,0.09372228,0
1.029,0.088615042,0
1.03,0.081911791,0
1.031,0.074570136,0
1.032,0.066909278,0
1.033,0.059886825,0
1.034,0.054141182,0
1.035,0.050629956,0
1.036,0.049033944,0
1.037,0.049672348,0
1.038,0.05254517,0
1.039,0.056694801,0
1.04,0.061163635,0
1.041,0.064674862,0
1.042,0.066590076,0
1.043,0.065313266,0
1.044,0.06052523,0
1.045,0.051587563,0
1.046,0.038500264,0
1.047,0.021582537,0
1.048,0.00211119,0
1.049,-0.019594574,0
1.05,-0.041938742,0
1.051,-0.063963708,0
1.052,-0.084392662,0
1.053,-0.101948794,0
1.054,-0.115674498,0
1.055,-0.124931368,0
1.056,-0.128761796,0
1.057,-0.127804189,0
1.058,-0.121739344,0
1.059,-0.111844069,0
1.06,-0.099075973,0
1.061,-0.085031067,0
1.062,-0.071305363,0
1.063,-0.059175672,0
1.064,-0.049280397,0
1.065,-0.043215552,0
1.066,-0.040981135,0
1.067,-0.043215552,0
1.068,-0.049918802,0
1.069,-0.059814077,0
1.07,-0.072582173,0
1.071,-0.086627079,0
1.072,-0.100671985,0
1.073,-0.113120879,0
1.074,-0.123335356,0
1.075,-0.129400201,0
1.076,-0.131315416,0
1.077,-0.128442594,0
1.078,-0.121420141,0
1.079,-0.110567259,0
1.08,-0.097160758,0
1.081,-0.082477448,0
1.082,-0.067474935,0
1.083,-0.053749231,0
1.084,-0.042577147,0
1.085,-0.035235492,0
1.086,-0.032681872,0
1.087,-0.034597087,0
1.088,-0.040661932,0
1.089,-0.050238005,0
1.09,-0.062048494,0
1.091,-0.075454995,0
1.092,-0.088861496,0
1.093,-0.100671985,0
1.094,-0.110248057,0
1.095,-0.115674498,0
1.096,-0.11727051,0
1.097,-0.114078486,0
1.098,-0.106417628,0
1.099,-0.095564746,0
1.1,-0.081839043,0
1.101,-0.066517327,0
1.102,-0.051195612,0
1.103,-0.037150706,0
1.104,-0.025659419,0
1.105,-0.017679359,0
1.106,-0.014168133,0
1.107,-0.01512574,0
1.108,-0.020232978,0
1.109,-0.028851443,0
1.11,-0.040023528,0
1.111,-0.052791624,0
1.112,-0.06555972,0
1.113,-0.077051007,0
1.114,-0.086307876,0
1.115,-0.091734317,0
1.116,-0.093011127,0
1.117,-0.090138305,0
1.118,-0.083115852,0
1.119,-0.072901375,0
1.12,-0.060133279,0
1.121,-0.045769171,0
1.122,-0.031724265,0
1.123,-0.019275371,0
1.124,-0.009060894,0
1.125,-0.002676846,0
1.126,-0.000442429,0
1.127,-0.002357644,0
1.128,-0.008422489,0
1.129,-0.017998562,0
1.13,-0.029809051,0
1.131,-0.042896349,0
1.132,-0.055664446,0
1.133,-0.06683653,0
1.134,-0.075454995,0
1.135,-0.079923828,0
1.136,-0.080562233,0
1.137,-0.076731804,0
1.138,-0.068751744,0
1.139,-0.057260458,0
1.14,-0.043853956,0
1.141,-0.028851443,0
1.142,-0.014168133,0
1.143,-0.001400037,0
1.144,0.008176036,0
1.145,0.014240881,0
1.146,0.015517691,0
1.147,0.011687262,0
1.148,0.003388,0
1.149,-0.009060894,0
1.15,-0.024701812,0
1.151,-0.041938742,0
1.152,-0.059175672,0
1.153,-0.075774197,0
1.154,-0.089499901,0
1.155,-0.099714378,0
1.156,-0.105460021,0
1.157,-0.10673683,0
1.158,-0.103864009,0
1.159,-0.097160758,0
1.16,-0.087584686,0
1.161,-0.076093399,0
1.162,-0.063644506,0
1.163,-0.050557207,0
1.164,-0.038746718,0
1.165,-0.028532241,0
1.166,-0.020232978,0
1.167,-0.01384893,0
1.168,-0.008741692,0
1.169,-0.003634453,0
1.17,0.002749595,0
1.171,0.012325667,0
1.172,0.027008978,0
1.173,0.048395539,0
1.174,0.077442958,0
1.175,0.115428044,0
1.176,0.16267,0
1.177,0.218849624,0
1.178,0.282690105,0
1.179,0.352276229,0
1.18,0.425054378,0
1.181,0.499109336,0
1.182,0.571887484,0
1.183,0.641473609,0
1.184,0.70531409,0
1.185,0.761812916,0
1.186,0.808416467,0
1.187,0.843528732,0
1.188,0.8658729,0
1.189,0.874810568,0
1.19,0.870341734,0
1.191,0.853743209,0
1.192,0.826291802,0
1.193,0.789583525,0
1.194,0.746171998,0
1.195,0.69733403,0
1.196,0.645304038,0
1.197,0.590720426,0
1.198,0.53549841,0
1.199,0.479957192,0
1.2,0.424415973,0
1.201,0.369513159,0
1.202,0.315567953,0
1.203,0.262580353,0
1.204,0.210550361,0
1.205,0.160116381,0
1.206,0.111278413,0
1.207,0.064674862,0
1.208,0.020305727,0
1.209,-0.019913776,0
1.21,-0.055983648,0
1.211,-0.087265484,0
1.212,-0.112163271,0
1.213,-0.130038606,0
1.214,-0.140891488,0
1.215,-0.144083512,0
1.216,-0.140253083,0
1.217,-0.130038606,0
1.218,-0.114078486,0
1.219,-0.094287937,0
1.22,-0.071943768,0
1.221,-0.048641993,0
1.222,-0.026617027,0
1.223,-0.00714568,0
1.224,0.007856833,0
1.225,0.018390513,0
1.226,0.023497751,0
1.227,0.023178549,0
1.228,0.017752108,0
1.229,0.008495238,0
1.23,-0.003315251,0
1.231,-0.017360157,0
1.232,-0.031405063,0
1.233,-0.044173159,0
1.234,-0.054387636,0
1.235,-0.061090886,0
1.236,-0.063644506,0
1.237,-0.062048494,0
1.238,-0.056622053,0
1.239,-0.048003588,0
1.24,-0.037150706,0
1.241,-0.025659419,0
1.242,-0.014168133,0
1.243,-0.004592061,0
1.244,0.002430392,0
1.245,0.006260821,0
1.246,0.006260821,0
1.247,0.002430392,0
1.248,-0.004911263,0
1.249,-0.01512574,0
1.25,-0.027255431,0
1.251,-0.040023528,0
1.252,-0.052472421,0
1.253,-0.062686898,0
1.254,-0.069709351,0
1.255,-0.072582173,0
1.256,-0.071305363,0
1.257,-0.06555972,0
1.258,-0.05630285,0
1.259,-0.043853956,0
1.26,-0.029809051,0
1.261,-0.015444942,0
1.262,-0.002038441,0
1.263,0.009133643,0
1.264,0.017752108,0
1.265,0.021901739,0
1.266,0.021582537,0
1.267,0.016794501,0
1.268,0.008176036,0
1.269,-0.003634453,0
1.27,-0.017360157,0
1.271,-0.031724265,0
1.272,-0.045130766,0
1.273,-0.055983648,0
1.274,-0.063644506,0
1.275,-0.067155732,0
1.276,-0.066198125,0
1.277,-0.060452482,0
1.278,-0.050876409,0
1.279,-0.038108313,0
1.28,-0.023425003,0
1.281,-0.007784085,0
1.282,0.007218428,0
1.283,0.019667322,0
1.284,0.029243394,0
1.285,0.034669835,0
1.286,0.035627443,0
1.287,0.032435419,0
1.288,0.025412966,0
1.289,0.015517691,0
1.29,0.003707202,0
1.291,-0.009060894,0
1.292,-0.021509788,0
1.293,-0.031724265,0
1.294,-0.03906592,0
1.295,-0.042257944,0
1.296,-0.040981135,0
1.297,-0.035554694,0
1.298,-0.026617027,0
1.299,-0.014806538,0
1.3,-0.001080834,0
1.301,0.012964072,0
1.302,0.026370573,0
1.303,0.037861859,0
1.304,0.046161122,0
1.305,0.050629956,0
1.306,0.050629956,0
1.307,0.046480324,0
1.308,0.038500264,0
1.309,0.02732818,0
1.31,0.014879286,0
1.311,0.00211119,0
1.312,-0.010018501,0
1.313,-0.019913776,0
1.314,-0.026617027,0
1.315,-0.029489848,0
1.316,-0.027893836,0
1.317,-0.02182899,0
1.318,-0.012252918,0
1.319,0.000195976,0
1.32,0.014240881,0
1.321,0.028924192,0
1.322,0.042649895,0
1.323,0.053502777,0
1.324,0.061163635,0
1.325,0.064674862,0
1.326,0.063717254,0
1.327,0.058290813,0
1.328,0.049353146,0
1.329,0.037542657,0
1.33,0.024136156,0
1.331,0.010410453,0
1.332,-0.001719239,0
1.333,-0.011933716,0
1.334,-0.018317764,0
1.335,-0.020871383,0
1.336,-0.018956169,0
1.337,-0.012572121,0
1.338,-0.002676846,0
1.339,0.009772048,0
1.34,0.024455358,0
1.341,0.039138669,0
1.342,0.053183575,0
1.343,0.064674862,0
1.344,0.072335719,0
1.345,0.076166148,0
1.346,0.075208541,0
1.347,0.070101302,0
1.348,0.061482837,0
1.349,0.049991551,0
1.35,0.036904252,0
1.351,0.023497751,0
1.352,0.011048857,0
1.353,0.001153583,0
1.354,-0.005549668,0
1.355,-0.008103287,0
1.356,-0.006188073,0
1.357,-0.000123227,0
1.358,0.009133643,0
1.359,0.021901739,0
1.36,0.036265847,0
1.361,0.050949158,0
1.362,0.064674862,0
1.363,0.075527743,0
1.364,0.083188601,0
1.365,0.086061423,0
1.366,0.084465411,0
1.367,0.07903897,0
1.368,0.0697821,0
1.369,0.058610016,0
1.37,0.04584192,0
1.371,0.033073823,0
1.372,0.021582537,0
1.373,0.012006465,0
1.374,0.006580024,0
1.375,0.004345607,0
1.376,0.006899226,0
1.377,0.012964072,0
1.378,0.023178549,0
1.379,0.035946645,0
1.38,0.050310753,0
1.381,0.065313266,0
1.382,0.079358172,0
1.383,0.090849459,0
1.384,0.098829519,0
1.385,0.102659948,0
1.386,0.102021543,0
1.387,0.097233507,0
1.388,0.088934244,0
1.389,0.078081363,0
1.39,0.066270874,0
1.391,0.054779587,0
1.392,0.044884312,0
1.393,0.037542657,0
1.394,0.033712228,0
1.395,0.034031431,0
1.396,0.038500264,0
1.397,0.047437932,0
1.398,0.059567623,0
1.399,0.073931731,0
1.4,0.089253447,0
1.401,0.104575162,0
1.402,0.117981663,0
1.403,0.12819614,0
1.404,0.134580188,0
1.405,0.136814605,0
1.406,0.134580188,0
1.407,0.128515343,0
1.408,0.118620068,0
1.409,0.106809579,0
1.41,0.09372228,0
1.411,0.080954184,0
1.412,0.069462898,0
1.413,0.061163635,0
1.414,0.056694801,0
1.415,0.056694801,0
1.416,0.06180204,0
1.417,0.07105891,0
1.418,0.084146208,0
1.419,0.099787126,0
1.42,0.117024056,0
1.421,0.133941784,0
1.422,0.149582701,0
1.423,0.162350798,0
1.424,0.171288465,0
1.425,0.175757299,0
1.426,0.175438096,0
1.427,0.17065006,0
1.428,0.162350798,0
1.429,0.150859511,0
1.43,0.138091415,0
1.431,0.125323319,0
1.432,0.113832032,0
1.433,0.104894365,0
1.434,0.099787126,0
1.435,0.098510317,0
1.436,0.101702341,0
1.437,0.109363198,0
1.438,0.12021608,0
1.439,0.133303379,0
1.44,0.147348285,0
1.441,0.161073988,0
1.442,0.172884477,0
1.443,0.182141347,0
1.444,0.187567788,0
1.445,0.188206193,0
1.446,0.184694966,0
1.447,0.176395704,0
1.448,0.164585215,0
1.449,0.150540309,0
1.45,0.134580188,0
1.451,0.11893927,0
1.452,0.104575162,0
1.453,0.092764673,0
1.454,0.084146208,0
1.455,0.079996577,0
1.456,0.079996577,0
1.457,0.083507803,0
1.458,0.090530256,0
1.459,0.099467924,0
1.46,0.109363198,0
1.461,0.119258473,0
1.462,0.127238533,0
1.463,0.132664974,0
1.464,0.133941784,0
1.465,0.13074976,0
1.466,0.123088902,0
1.467,0.111278413,0
1.468,0.095956697,0
1.469,0.07903897,0
1.47,0.060844433,0
1.471,0.0432883,0
1.472,0.027647382,0
1.473,0.015198489,0
1.474,0.006580024,0
1.475,0.00211119,0
1.476,0.002430392,0
1.477,0.006260821,0
1.478,0.013283274,0
1.479,0.022859346,0
1.48,0.033712228,0
1.481,0.044245908,0
1.482,0.053183575,0
1.483,0.059248421,0
1.484,0.061163635,0
1.485,0.058929218,0
1.486,0.051906765,0
1.487,0.040734681,0
1.488,0.026370573,0
1.489,0.009452845,0
1.49,-0.008103287,0
1.491,-0.025978622,0
1.492,-0.041938742,0
1.493,-0.054706838,0
1.494,-0.063644506,0
1.495,-0.067794137,0
1.496,-0.067474935,0
1.497,-0.062686898,0
1.498,-0.054706838,0
1.499,-0.044173159,0
1.5,-0.032681872,0
1.501,-0.02182899,0
1.502,-0.012252918,0
1.503,-0.005549668,0
1.504,-0.001719239,0
1.505,-0.002038441,0
1.506,-0.006507275,0
1.507,-0.014487335,0
1.508,-0.025659419,0
1.509,-0.038427516,0
1.51,-0.052153219,0
1.511,-0.06555972,0
1.512,-0.076731804,0
1.513,-0.085031067,0
1.514,-0.089819103,0
1.515,-0.090138305,0
1.516,-0.085988674,0
1.517,-0.078327816,0
1.518,-0.067474935,0
1.519,-0.055026041,0
1.52,-0.04161954,0
1.521,-0.028851443,0
1.522,-0.017998562,0
1.523,-0.010337704,0
1.524,-0.006507275,0
1.525,-0.00714568,0
1.526,-0.012252918,0
1.527,-0.020871383,0
1.528,-0.033001075,0
1.529,-0.046726778,0
1.53,-0.061090886,0
1.531,-0.075135792,0
1.532,-0.086946281,0
1.533,-0.095564746,0
1.534,-0.10003358,0
1.535,-0.10003358,0
1.536,-0.095564746,0
1.537,-0.086946281,0
1.538,-0.075135792,0
1.539,-0.061090886,0
1.54,-0.046726778,0
1.541,-0.032681872,0
1.542,-0.021190586,0
1.543,-0.012572121,0
1.544,-0.008103287,0
1.545,-0.008103287,0
1.546,-0.012252918,0
1.547,-0.020232978,0
1.548,-0.03108586,0
1.549,-0.043853956,0
1.55,-0.05757966,0
1.551,-0.070347756,0
1.552,-0.081200638,0
1.553,-0.088542293,0
1.554,-0.09205352,0
1.555,-0.091095913,0
1.556,-0.085669472,0
1.557,-0.076731804,0
1.558,-0.064921315,0
1.559,-0.051514814,0
1.56,-0.037150706,0
1.561,-0.023744205,0
1.562,-0.012252918,0
1.563,-0.003953656,0
1.564,-0.000123227,0
1.565,-0.000442429,0
1.566,-0.004911263,0
1.567,-0.013529728,0
1.568,-0.025340217,0
1.569,-0.038746718,0
1.57,-0.053110826,0
1.571,-0.066517327,0
1.572,-0.077689412,0
1.573,-0.085350269,0
1.574,-0.089180698,0
1.575,-0.087903888,0
1.576,-0.082477448,0
1.577,-0.072901375,0
1.578,-0.060452482,0
1.579,-0.046088373,0
1.58,-0.031405063,0
1.581,-0.017360157,0
1.582,-0.00586887,0
1.583,0.002430392,0
1.584,0.006580024,0
1.585,0.006260821,0
1.586,0.001472785,0
1.587,-0.007464882,0
1.588,-0.019594574,0
1.589,-0.033320277,0
1.59,-0.047684385,0
1.591,-0.061090886,0
1.592,-0.071943768,0
1.593,-0.079604626,0
1.594,-0.08279665,0
1.595,-0.08151984,0
1.596,-0.075454995,0
1.597,-0.06555972,0
1.598,-0.052472421,0
1.599,-0.037150706,0
1.6,-0.021509788,0
1.601,-0.006507275,0
1.602,0.006260821,0
1.603,0.014879286,0
1.604,0.019667322,0
1.605,0.019667322,0
1.606,0.015198489,0
1.607,0.007218428,0
1.608,-0.003953656,0
1.609,-0.017360157,0
1.61,-0.031405063,0
1.611,-0.044811564,0
1.612,-0.056622053,0
1.613,-0.065240518,0
1.614,-0.069709351,0
1.615,-0.070028554,0
1.616,-0.066198125,0
1.617,-0.058218065,0
1.618,-0.047365183,0
1.619,-0.034597087,0
1.62,-0.021190586,0
1.621,-0.008422489,0
1.622,0.00211119,0
1.623,0.009133643,0
1.624,0.012644869,0
1.625,0.011687262,0
1.626,0.007218428,0
1.627,-0.000761632,0
1.628,-0.011614513,0
1.629,-0.024063407,0
1.63,-0.037150706,0
1.631,-0.048961195,0
1.632,-0.058537267,0
1.633,-0.064921315,0
1.634,-0.067155732,0
1.635,-0.065240518,0
1.636,-0.059175672,0
1.637,-0.0495996,0
1.638,-0.037469908,0
1.639,-0.024063407,0
1.64,-0.010656906,0
1.641,0.001791988,0
1.642,0.011048857,0
1.643,0.017432905,0
1.644,0.019028917,0
1.645,0.016475298,0
1.646,0.009772048,0
1.647,-0.000123227,0
1.648,-0.012572121,0
1.649,-0.026617027,0
1.65,-0.040661932,0
1.651,-0.053110826,0
1.652,-0.063325303,0
1.653,-0.069709351,0
1.654,-0.071624566,0
1.655,-0.069070947,0
1.656,-0.062367696,0
1.657,-0.051514814,0
1.658,-0.038108313,0
1.659,-0.023425003,0
1.66,-0.008422489,0
1.661,0.004984012,0
1.662,0.015517691,0
1.663,0.022859346,0
1.664,0.025732168,0
1.665,0.024136156,0
1.666,0.018390513,0
1.667,0.008495238,0
1.668,-0.003634453,0
1.669,-0.017679359,0
1.67,-0.032043467,0
1.671,-0.045130766,0
1.672,-0.055664446,0
1.673,-0.063006101,0
1.674,-0.06555972,0
1.675,-0.063644506,0
1.676,-0.057260458,0
1.677,-0.047045981,0
1.678,-0.034277884,0
1.679,-0.019913776,0
1.68,-0.005549668,0
1.681,0.007218428,0
1.682,0.017113703,0
1.683,0.023816954,0
1.684,0.026370573,0
1.685,0.024774561,0
1.686,0.019028917,0
1.687,0.009772048,0
1.688,-0.001719239,0
1.689,-0.015444942,0
1.69,-0.029170646,0
1.691,-0.04161954,0
1.692,-0.051514814,0
1.693,-0.058218065,0
1.694,-0.060452482,0
1.695,-0.058218065,0
1.696,-0.051834017,0
1.697,-0.041300337,0
1.698,-0.028532241,0
1.699,-0.014168133,0
1.7,-0.000123227,0
1.701,0.012325667,0
1.702,0.021901739,0
1.703,0.027647382,0
1.704,0.029881799,0
1.705,0.027966585,0
1.706,0.022540144,0
1.707,0.013602477,0
1.708,0.002430392,0
1.709,-0.010337704,0
1.71,-0.0231058,0
1.711,-0.034916289,0
1.712,-0.044492361,0
1.713,-0.049918802,0
1.714,-0.051514814,0
1.715,-0.048641993,0
1.716,-0.041938742,0
1.717,-0.031724265,0
1.718,-0.018956169,0
1.719,-0.005230465,0
1.72,0.008176036,0
1.721,0.019986525,0
1.722,0.028924192,0
1.723,0.034031431,0
1.724,0.034989038,0
1.725,0.031158609,0
1.726,0.023497751,0
1.727,0.012325667,0
1.728,-0.000761632,0
1.729,-0.015444942,0
1.73,-0.029489848,0
1.731,-0.042257944,0
1.732,-0.051834017,0
1.733,-0.05757966,0
1.734,-0.058537267,0
1.735,-0.055345243,0
1.736,-0.047684385,0
1.737,-0.036831504,0
1.738,-0.0231058,0
1.739,-0.008103287,0
1.74,0.006260821,0
1.741,0.018709715,0
1.742,0.02860499,0
1.743,0.034989038,0
1.744,0.036904252,0
1.745,0.034669835,0
1.746,0.028285787,0
1.747,0.018390513,0
1.748,0.006580024,0
1.749,-0.006826477,0
1.75,-0.020232978,0
1.751,-0.032043467,0
1.752,-0.040981135,0
1.753,-0.046407576,0
1.754,-0.047365183,0
1.755,-0.044173159,0
1.756,-0.036512301,0
1.757,-0.025659419,0
1.758,-0.012572121,0
1.759,0.00211119,0
1.76,0.015836893,0
1.761,0.02860499,0
1.762,0.038181062,0
1.763,0.044245908,0
1.764,0.046161122,0
1.765,0.043607503,0
1.766,0.037542657,0
1.767,0.027966585,0
1.768,0.015836893,0
1.769,0.003068797,0
1.77,-0.009699299,0
1.771,-0.020871383,0
1.772,-0.029489848,0
1.773,-0.033958682,0
1.774,-0.034277884,0
1.775,-0.030447455,0
1.776,-0.022786598,0
1.777,-0.011933716,0
1.778,0.000515178,0
1.779,0.013602477,0
1.78,0.026689775,0
1.781,0.038181062,0
1.782,0.046161122,0
1.783,0.050629956,0
1.784,0.050310753,0
1.785,0.04584192,0
1.786,0.037542657,0
1.787,0.025732168,0
1.788,0.012006465,0
1.789,-0.002357644,0
1.79,-0.016721752,0
1.791,-0.028851443,0
1.792,-0.037789111,0
1.793,-0.042577147,0
1.794,-0.043215552,0
1.795,-0.039385123,0
1.796,-0.031405063,0
1.797,-0.020552181,0
1.798,-0.007784085,0
1.799,0.005622416,0
1.8,0.018390513,0
1.801,0.029562597,0
1.802,0.037861859,0
1.803,0.042649895,0
1.804,0.042649895,0
1.805,0.038500264,0
1.806,0.029881799,0
1.807,0.018390513,0
1.808,0.005303214,0
1.809,-0.008741692,0
1.81,-0.022148193,0
1.811,-0.03363948,0
1.812,-0.04161954,0
1.813,-0.046088373,0
1.814,-0.045769171,0
1.815,-0.040981135,0
1.816,-0.032681872,0
1.817,-0.021509788,0
1.818,-0.008422489,0
1.819,0.004984012,0
1.82,0.017432905,0
1.821,0.028285787,0
1.822,0.035627443,0
1.823,0.039457871,0
1.824,0.038500264,0
1.825,0.033073823,0
1.826,0.023178549,0
1.827,0.010410453,0
1.828,-0.003953656,0
1.829,-0.019594574,0
1.83,-0.033958682,0
1.831,-0.046088373,0
1.832,-0.055026041,0
1.833,-0.059494874,0
1.834,-0.059175672,0
1.835,-0.054706838,0
1.836,-0.046088373,0
1.837,-0.034277884,0
1.838,-0.020232978,0
1.839,-0.005549668,0
1.84,0.008176036,0
1.841,0.019986525,0
1.842,0.02860499,0
1.843,0.033073823,0
1.844,0.032754621,0
1.845,0.028285787,0
1.846,0.019986525,0
1.847,0.008495238,0
1.848,-0.004911263,0
1.849,-0.018956169,0
1.85,-0.032681872,0
1.851,-0.044492361,0
1.852,-0.053110826,0
1.853,-0.057898862,0
1.854,-0.058218065,0
1.855,-0.054068433,0
1.856,-0.045769171,0
1.857,-0.033958682,0
1.858,-0.020552181,0
1.859,-0.006188073,0
1.86,0.007218428,0
1.861,0.01807131,0
1.862,0.025732168,0
1.863,0.029243394,0
1.864,0.028285787,0
1.865,0.023178549,0
1.866,0.014560084,0
1.867,0.003068797,0
1.868,-0.010656906,0
1.869,-0.024701812,0
1.87,-0.037789111,0
1.871,-0.048641993,0
1.872,-0.05630285,0
1.873,-0.060133279,0
1.874,-0.059175672,0
1.875,-0.054387636,0
1.876,-0.045449969,0
1.877,-0.033320277,0
1.878,-0.019594574,0
1.879,-0.005230465,0
1.88,0.008495238,0
1.881,0.020305727,0
1.882,0.029243394,0
1.883,0.034350633,0
1.884,0.03530824,0
1.885,0.031797014,0
1.886,0.024774561,0
1.887,0.014879286,0
1.888,0.003707202,0
1.889,-0.008103287,0
1.89,-0.018956169,0
1.891,-0.027255431,0
1.892,-0.03236267,0
1.893,-0.033001075,0
1.894,-0.029489848,0
1.895,-0.02182899,0
1.896,-0.010337704,0
1.897,0.004026404,0
1.898,0.01934812,0
1.899,0.034989038,0
1.9,0.049353146,0
1.901,0.061482837,0
1.902,0.070101302,0
1.903,0.074570136,0
1.904,0.074570136,0
1.905,0.070420505,0
1.906,0.062440445,0
1.907,0.051587563,0
1.908,0.038500264,0
1.909,0.025412966,0
1.91,0.013283274,0
1.911,0.003707202,0
1.912,-0.002038441,0
1.913,-0.003634453,0
1.914,-0.000761632,0
1.915,0.006580024,0
1.916,0.017113703,0
1.917,0.030839406,0
1.918,0.04584192,0
1.919,0.06180204,0
1.92,0.076804553,0
1.921,0.089891852,0
1.922,0.099467924,0
1.923,0.104575162,0
1.924,0.104894365,0
1.925,0.100744733,0
1.926,0.092764673,0
1.927,0.081911791,0
1.928,0.069462898,0
1.929,0.056375599,0
1.93,0.043926705,0
1.931,0.033712228,0
1.932,0.026689775,0
1.933,0.023178549,0
1.934,0.023816954,0
1.935,0.028285787,0
1.936,0.036265847,0
1.937,0.046480324,0
1.938,0.057971611,0
1.939,0.069462898,0
1.94,0.079677375,0
1.941,0.08701903,0
1.942,0.090530256,0
1.943,0.090211054,0
1.944,0.08574222,0
1.945,0.076804553,0
1.946,0.064355659,0
1.947,0.049672348,0
1.948,0.033393026,0
1.949,0.017113703,0
1.95,0.002430392,0
1.951,-0.009699299,0
1.952,-0.018317764,0
1.953,-0.022467395,0
1.954,-0.022467395,0
1.955,-0.017998562,0
1.956,-0.010018501,0
1.957,0.000195976,0
1.958,0.012006465,0
1.959,0.023816954,0
1.96,0.034669835,0
1.961,0.042649895,0
1.962,0.047118729,0
1.963,0.047118729,0
1.964,0.042330693,0
1.965,0.033393026,0
1.966,0.020944132,0
1.967,0.006260821,0
1.968,-0.010337704,0
1.969,-0.026617027,0
1.97,-0.041300337,0
1.971,-0.053430029,0
1.972,-0.061729291,0
1.973,-0.06555972,0
1.974,-0.064602113,0
1.975,-0.059494874,0
1.976,-0.050557207,0
1.977,-0.038746718,0
1.978,-0.025340217,0
1.979,-0.011933716,0
1.98,0.000515178,0
1.981,0.009772048,0
1.982,0.016156096,0
1.983,0.01807131,0
1.984,0.015836893,0
1.985,0.009133643,0
1.986,-0.000442429,0
1.987,-0.013210526,0
1.988,-0.026936229,0
1.989,-0.040981135,0
1.99,-0.053749231,0
1.991,-0.063963708,0
1.992,-0.070986161,0
1.993,-0.07353978,0
1.994,-0.071943768,0
1.995,-0.065878922,0
1.996,-0.055983648,0
1.997,-0.043853956,0
1.998,-0.030128253,0
1.999,-0.01640255,0
2,-0.003953656,0
2.001,0.005622416,0
2.002,0.01136806,0
2.003,0.012964072,0
2.004,0.010729655,0
2.005,0.004345607,0
2.006,-0.005230465,0
2.007,-0.017360157,0
2.008,-0.030447455,0
2.009,-0.043534754,0
2.01,-0.055345243,0
2.011,-0.06428291,0
2.012,-0.069709351,0
2.013,-0.070347756,0
2.014,-0.067155732,0
2.015,-0.059494874,0
2.016,-0.048641993,0
2.017,-0.035554694,0
2.018,-0.021509788,0
2.019,-0.008103287,0
2.02,0.003707202,0
2.021,0.012325667,0
2.022,0.017752108,0
2.023,0.018709715,0
2.024,0.015517691,0
2.025,0.008495238,0
2.026,-0.001400037,0
2.027,-0.013529728,0
2.028,-0.026936229,0
2.029,-0.039704325,0
2.03,-0.050876409,0
2.031,-0.059175672,0
2.032,-0.063325303,0
2.033,-0.063006101,0
2.034,-0.057898862,0
2.035,-0.048641993,0
2.036,-0.035873896,0
2.037,-0.021190586,0
2.038,-0.00586887,0
2.039,0.00881444,0
2.04,0.022220942,0
2.041,0.032116216,0
2.042,0.037861859,0
2.043,0.038500264,0
2.044,0.034350633,0
2.045,0.025412966,0
2.046,0.012644869,0
2.047,-0.002357644,0
2.048,-0.019594574,0
2.049,-0.036831504,0
2.05,-0.052791624,0
2.051,-0.066198125,0
2.052,-0.075454995,0
2.053,-0.080562233,0
2.054,-0.080562233,0
2.055,-0.076093399,0
2.056,-0.068113339,0
2.057,-0.057260458,0
2.058,-0.044811564,0
2.059,-0.031724265,0
2.06,-0.019275371,0
2.061,-0.008422489,0
2.062,0.000195976,0
2.063,0.006580024,0
2.064,0.01009125,0
2.065,0.012325667,0
2.066,0.013602477,0
2.067,0.015836893,0
2.068,0.020944132,0
2.069,0.030520204,0
2.07,0.046480324,0
2.071,0.070420505,0
2.072,0.10297915,0
2.073,0.14543307,0
2.074,0.196824658,0
2.075,0.25683471,0
2.076,0.323548013,0
2.077,0.394730149,0
2.078,0.468465905,0
2.079,0.541563256,0
2.08,0.612745392,0
2.081,0.679458695,0
2.082,0.73978795,0
2.083,0.79149874,0
2.084,0.832995052,0
2.085,0.863000079,0
2.086,0.880556211,0
2.087,0.885344247,0
2.088,0.878640996,0
2.089,0.860446459,0
2.09,0.832995052,0
2.091,0.797882788,0
2.092,0.75574807,0
2.093,0.708825317,0
2.094,0.657433729,0
2.095,0.603488523,0
2.096,0.547628102,0
2.097,0.490490871,0
2.098,0.432396033,66.81514477
2.099,0.373981993,66.81514477
2.1,0.314929548,66.81514477
2.101,0.255877103,66.81514477
2.102,0.19714386,66.81514477
2.103,0.140006629,66.81514477
2.104,0.084465411,66.81514477
2.105,0.032435419,66.81514477
2.106,-0.014806538,66.81514477
2.107,-0.056941255,66.81514477
2.108,-0.092372722,66.81514477
2.109,-0.120462534,66.81514477
2.11,-0.139933881,66.81514477
2.111,-0.150786762,66.81514477
2.112,-0.153340382,66.81514477
2.113,-0.147275536,66.81514477
2.114,-0.13450744,66.81514477
2.115,-0.115355295,66.81514477
2.116,-0.09205352,66.81514477
2.117,-0.06683653,66.81514477
2.118,-0.040981135,66.81514477
2.119,-0.017040954,66.81514477
2.12,0.003707202,66.81514477
2.121,0.019667322,66.81514477
2.122,0.030201002,66.81514477
2.123,0.034989038,66.81514477
2.124,0.033712228,66.81514477
2.125,0.027008978,66.81514477
2.126,0.016156096,66.81514477
2.127,0.00211119,66.81514477
2.128,-0.014168133,66.81514477
2.129,-0.030447455,66.81514477
2.13,-0.045769171,66.81514477
2.131,-0.058218065,66.81514477
2.132,-0.066517327,66.81514477
2.133,-0.070666959,66.81514477
2.134,-0.070028554,66.81514477
2.135,-0.065240518,66.81514477
2.136,-0.056622053,66.81514477
2.137,-0.046088373,66.81514477
2.138,-0.034277884,66.81514477
2.139,-0.022467395,66.81514477
2.14,-0.012252918,66.81514477
2.141,-0.004592061,66.81514477
2.142,-0.000442429,66.81514477
2.143,-0.000123227,66.81514477
2.144,-0.003634453,66.81514477
2.145,-0.010656906,66.81514477
2.146,-0.020552181,66.81514477
2.147,-0.03236267,66.81514477
2.148,-0.044492361,66.81514477
2.149,-0.055983648,66.81514477
2.15,-0.065240518,66.81514477
2.151,-0.070986161,66.81514477
2.152,-0.072901375,66.81514477
2.153,-0.070347756,66.81514477
2.154,-0.063963708,66.81514477
2.155,-0.054068433,66.81514477
2.156,-0.04161954,66.81514477
2.157,-0.027255431,66.81514477
2.158,-0.012572121,66.81514477
2.159,0.00083438,66.81514477
2.16,0.012006465,66.81514477
2.161,0.019986525,66.81514477
2.162,0.024136156,66.81514477
2.163,0.023497751,66.81514477
2.164,0.018709715,66.81514477
2.165,0.010410453,66.81514477
2.166,-0.000761632,66.81514477
2.167,-0.01384893,66.81514477
2.168,-0.027574634,66.81514477
2.169,-0.040661932,66.81514477
2.17,-0.051195612,66.81514477
2.171,-0.058537267,66.81514477
2.172,-0.061729291,66.81514477
2.173,-0.060771684,66.81514477
2.174,-0.055345243,66.81514477
2.175,-0.046407576,66.81514477
2.176,-0.034597087,66.81514477
2.177,-0.021509788,66.81514477
2.178,-0.007784085,66.81514477
2.179,0.004984012,66.81514477
2.18,0.015198489,66.81514477
2.181,0.022540144,66.81514477
2.182,0.025732168,66.81514477
2.183,0.024774561,66.81514477
2.184,0.01934812,66.81514477
2.185,0.010410453,66.81514477
2.186,-0.001080834,66.81514477
2.187,-0.014487335,66.81514477
2.188,-0.027893836,66.81514477
2.189,-0.04034273,66.81514477
2.19,-0.049918802,66.81514477
2.191,-0.05630285,66.81514477
2.192,-0.058218065,66.81514477
2.193,-0.055664446,66.81514477
2.194,-0.048961195,66.81514477
2.195,-0.038108313,66.81514477
2.196,-0.024701812,66.81514477
2.197,-0.009380097,66.81514477
2.198,0.006260821,66.81514477
2.199,0.020305727,66.81514477
2.2,0.031797014,66.81514477
2.201,0.039457871,66.81514477
2.202,0.042969098,66.81514477
2.203,0.041692288,66.81514477
2.204,0.03658505,66.81514477
2.205,0.027647382,66.81514477
2.206,0.015836893,66.81514477
2.207,0.002749595,66.81514477
2.208,-0.010976109,66.81514477
2.209,-0.023744205,66.81514477
2.21,-0.034277884,66.81514477
2.211,-0.041300337,66.81514477
2.212,-0.044492361,66.81514477
2.213,-0.042896349,66.81514477
2.214,-0.037150706,66.81514477
2.215,-0.027255431,66.81514477
2.216,-0.014806538,66.81514477
2.217,-0.000761632,66.81514477
2.218,0.013283274,66.81514477
2.219,0.026370573,66.81514477
2.22,0.036904252,66.81514477
2.221,0.04456511,66.81514477
2.222,0.047757134,66.81514477
2.223,0.046799527,66.81514477
2.224,0.041373086,66.81514477
2.225,0.032116216,66.81514477
2.226,0.020305727,66.81514477
2.227,0.006899226,66.81514477
2.228,-0.00714568,66.81514477
2.229,-0.019913776,66.81514477
2.23,-0.030128253,66.81514477
2.231,-0.036512301,66.81514477
2.232,-0.038427516,66.81514477
2.233,-0.035873896,66.81514477
2.234,-0.028851443,66.81514477
2.235,-0.017998562,66.81514477
2.236,-0.004592061,66.81514477
2.237,0.01009125,66.81514477
2.238,0.025093763,66.81514477
2.239,0.038819467,66.81514477
2.24,0.049672348,66.81514477
2.241,0.056694801,66.81514477
2.242,0.059567623,66.81514477
2.243,0.057652409,66.81514477
2.244,0.051906765,66.81514477
2.245,0.042330693,66.81514477
2.246,0.030201002,66.81514477
2.247,0.016794501,66.81514477
2.248,0.003388,66.81514477
2.249,-0.009060894,66.81514477
2.25,-0.018956169,66.81514477
2.251,-0.025340217,66.81514477
2.252,-0.027574634,66.81514477
2.253,-0.025021015,66.81514477
2.254,-0.018317764,66.81514477
2.255,-0.007464882,66.81514477
2.256,0.006260821,66.81514477
2.257,0.021582537,66.81514477
2.258,0.037223455,66.81514477
2.259,0.051906765,66.81514477
2.26,0.064036457,66.81514477
2.261,0.072016517,66.81514477
2.262,0.075846946,66.81514477
2.263,0.074889338,66.81514477
2.264,0.069462898,66.81514477
2.265,0.06052523,66.81514477
2.266,0.049033944,66.81514477
2.267,0.035946645,66.81514477
2.268,0.022859346,66.81514477
2.269,0.011048857,66.81514477
2.27,0.00211119,66.81514477
2.271,-0.003315251,66.81514477
2.272,-0.004592061,66.81514477
2.273,-0.001400037,66.81514477
2.274,0.006580024,66.81514477
2.275,0.017752108,66.81514477
2.276,0.031797014,66.81514477
2.277,0.047437932,66.81514477
2.278,0.063398052,66.81514477
2.279,0.078081363,66.81514477
2.28,0.090530256,66.81514477
2.281,0.099148721,66.81514477
2.282,0.103936757,66.81514477
2.283,0.10425596,66.81514477
2.284,0.100106329,66.81514477
2.285,0.092445471,66.81514477
2.286,0.082230994,66.81514477
2.287,0.070739707,66.81514477
2.288,0.058610016,66.81514477
2.289,0.048076336,66.81514477
2.29,0.039777074,66.81514477
2.291,0.03530824,66.81514477
2.292,0.034989038,66.81514477
2.293,0.038819467,66.81514477
2.294,0.047118729,66.81514477
2.295,0.058610016,66.81514477
2.296,0.072974124,66.81514477
2.297,0.088615042,66.81514477
2.298,0.104575162,66.81514477
2.299,0.11893927,66.81514477
2.3,0.130430557,66.81514477
2.301,0.138410617,66.81514477
2.302,0.141921844,66.81514477
2.303,0.141283439,66.81514477
2.304,0.136495403,66.81514477
2.305,0.128515343,66.81514477
2.306,0.118300866,66.81514477
2.307,0.107128781,66.81514477
2.308,0.095637495,66.81514477
2.309,0.08574222,66.81514477
2.31,0.078719767,66.81514477
2.311,0.074889338,66.81514477
2.312,0.075846946,66.81514477
2.313,0.080954184,66.81514477
2.314,0.089891852,66.81514477
2.315,0.102340745,66.81514477
2.316,0.116704854,66.81514477
2.317,0.132345772,66.81514477
2.318,0.147348285,66.81514477
2.319,0.160754786,66.81514477
2.32,0.170969263,66.81514477
2.321,0.177672513,66.81514477
2.322,0.180226132,66.81514477
2.323,0.177991716,66.81514477
2.324,0.17192687,66.81514477
2.325,0.162350798,66.81514477
2.326,0.150540309,66.81514477
2.327,0.13745301,66.81514477
2.328,0.125004116,66.81514477
2.329,0.114151234,66.81514477
2.33,0.106171174,66.81514477
2.331,0.102021543,66.81514477
2.332,0.102340745,66.81514477
2.333,0.106490377,66.81514477
2.334,0.114789639,66.81514477
2.335,0.125961723,66.81514477
2.336,0.139368224,66.81514477
2.337,0.153732333,66.81514477
2.338,0.167777239,66.81514477
2.339,0.17990693,66.81514477
2.34,0.188844597,66.81514477
2.341,0.193313431,66.81514477
2.342,0.193313431,66.81514477
2.343,0.188206193,66.81514477
2.344,0.178949323,66.81514477
2.345,0.166181227,66.81514477
2.346,0.150859511,66.81514477
2.347,0.134260986,66.81514477
2.348,0.117981663,66.81514477
2.349,0.10297915,66.81514477
2.35,0.090530256,66.81514477
2.351,0.081592589,66.81514477
2.352,0.076804553,66.81514477
2.353,0.076485351,66.81514477
2.354,0.079677375,66.81514477
2.355,0.086061423,66.81514477
2.356,0.094679888,66.81514477
2.357,0.10425596,66.81514477
2.358,0.113193627,66.81514477
2.359,0.12021608,66.81514477
2.36,0.124365711,66.81514477
2.361,0.124684914,66.81514477
2.362,0.12021608,66.81514477
2.363,0.111597615,66.81514477
2.364,0.098510317,66.81514477
2.365,0.081911791,66.81514477
2.366,0.063078849,66.81514477
2.367,0.0432883,66.81514477
2.368,0.024136156,66.81514477
2.369,0.007218428,66.81514477
2.37,-0.006188073,66.81514477
2.371,-0.015444942,66.81514477
2.372,-0.020232978,66.81514477
2.373,-0.020552181,66.81514477
2.374,-0.017040954,66.81514477
2.375,-0.010656906,66.81514477
2.376,-0.001719239,66.81514477
2.377,0.007537631,66.81514477
2.378,0.016475298,66.81514477
2.379,0.023816954,66.81514477
2.38,0.028285787,66.81514477
2.381,0.028924192,66.81514477
2.382,0.025093763,66.81514477
2.383,0.016794501,66.81514477
2.384,0.005303214,66.81514477
2.385,-0.009699299,66.81514477
2.386,-0.026617027,66.81514477
2.387,-0.044492361,66.81514477
2.388,-0.061729291,66.81514477
2.389,-0.076731804,66.81514477
2.39,-0.088861496,66.81514477
2.391,-0.096522353,66.81514477
2.392,-0.099395175,66.81514477
2.393,-0.098118365,66.81514477
2.394,-0.092372722,66.81514477
2.395,-0.083435055,66.81514477
2.396,-0.071943768,66.81514477
2.397,-0.059814077,66.81514477
2.398,-0.048003588,66.81514477
2.399,-0.038427516,66.81514477
2.4,-0.031724265,66.81514477
2.401,-0.029170646,66.81514477
2.402,-0.03108586,66.81514477
2.403,-0.037150706,66.81514477
2.404,-0.047045981,66.81514477
2.405,-0.059814077,66.81514477
2.406,-0.07481659,66.81514477
2.407,-0.09077671,66.81514477
2.408,-0.105779223,66.81514477
2.409,-0.119185724,66.81514477
2.41,-0.129080999,66.81514477
2.411,-0.135145845,66.81514477
2.412,-0.136741857,66.81514477
2.413,-0.13323063,66.81514477
2.414,-0.125888975,66.81514477
2.415,-0.115036093,66.81514477
2.416,-0.101948794,66.81514477
2.417,-0.087903888,66.81514477
2.418,-0.074497387,66.81514477
2.419,-0.063325303,66.81514477
2.42,-0.055026041,66.81514477
2.421,-0.050557207,66.81514477
2.422,-0.050557207,66.81514477
2.423,-0.054706838,66.81514477
2.424,-0.062367696,66.81514477
2.425,-0.073220578,66.81514477
2.426,-0.085988674,66.81514477
2.427,-0.099395175,66.81514477
2.428,-0.112163271,66.81514477
2.429,-0.123016153,66.81514477
2.43,-0.130677011,66.81514477
2.431,-0.13450744,66.81514477
2.432,-0.133869035,66.81514477
2.433,-0.128761796,66.81514477
2.434,-0.119824129,66.81514477
2.435,-0.10801364,66.81514477
2.436,-0.093968734,66.81514477
2.437,-0.079285424,66.81514477
2.438,-0.06555972,66.81514477
2.439,-0.053749231,66.81514477
2.44,-0.045769171,66.81514477
2.441,-0.04161954,66.81514477
2.442,-0.042257944,66.81514477
2.443,-0.047365183,66.81514477
2.444,-0.055983648,66.81514477
2.445,-0.067474935,66.81514477
2.446,-0.080881436,66.81514477
2.447,-0.095245544,66.81514477
2.448,-0.108652045,66.81514477
2.449,-0.120462534,66.81514477
2.45,-0.128761796,66.81514477
2.451,-0.132911428,66.81514477
2.452,-0.132273023,66.81514477
2.453,-0.127165784,66.81514477
2.454,-0.117908915,66.81514477
2.455,-0.105779223,66.81514477
2.456,-0.09205352,66.81514477
2.457,-0.077370209,66.81514477
2.458,-0.063325303,66.81514477
2.459,-0.051514814,66.81514477
2.46,-0.042896349,66.81514477
2.461,-0.038427516,66.81514477
2.462,-0.038427516,66.81514477
2.463,-0.042577147,66.81514477
2.464,-0.050557207,66.81514477
2.465,-0.061729291,66.81514477
2.466,-0.074497387,66.81514477
2.467,-0.087903888,66.81514477
2.468,-0.10003358,66.81514477
2.469,-0.110248057,66.81514477
2.47,-0.11727051,66.81514477
2.471,-0.119824129,66.81514477
2.472,-0.118228117,66.81514477
2.473,-0.112482474,66.81514477
2.474,-0.102906402,66.81514477
2.475,-0.090138305,66.81514477
2.476,-0.075774197,66.81514477
2.477,-0.061090886,66.81514477
2.478,-0.047045981,66.81514477
2.479,-0.035235492,66.81514477
2.48,-0.026617027,66.81514477
2.481,-0.022467395,66.81514477
2.482,-0.022786598,66.81514477
2.483,-0.027255431,66.81514477
2.484,-0.035873896,66.81514477
2.485,-0.047365183,66.81514477
2.486,-0.060771684,66.81514477
2.487,-0.07481659,66.81514477
2.488,-0.088223091,66.81514477
2.489,-0.099075973,66.81514477
2.49,-0.106417628,66.81514477
2.491,-0.109928855,66.81514477
2.492,-0.108971247,66.81514477
2.493,-0.103544806,66.81514477
2.494,-0.094607139,66.81514477
2.495,-0.08279665,66.81514477
2.496,-0.069070947,66.81514477
2.497,-0.054706838,66.81514477
2.498,-0.041300337,66.81514477
2.499,-0.030128253,66.81514477
2.5,-0.022148193,66.81514477
2.501,-0.018636966,66.81514477
2.502,-0.019594574,66.81514477
2.503,-0.024701812,66.81514477
2.504,-0.03363948,66.81514477
2.505,-0.045449969,66.81514477
2.506,-0.05885647,66.81514477
2.507,-0.072901375,66.81514477
2.508,-0.085350269,66.81514477
2.509,-0.095883949,66.81514477
2.51,-0.102587199,66.81514477
2.511,-0.105460021,66.81514477
2.512,-0.103544806,66.81514477
2.513,-0.097160758,66.81514477
2.514,-0.086946281,66.81514477
2.515,-0.074178185,66.81514477
2.516,-0.059814077,66.81514477
2.517,-0.044811564,66.81514477
2.518,-0.03108586,66.81514477
2.519,-0.019913776,66.81514477
2.52,-0.011614513,66.81514477
2.521,-0.007784085,66.81514477
2.522,-0.008422489,66.81514477
2.523,-0.013210526,66.81514477
2.524,-0.02182899,66.81514477
2.525,-0.033001075,66.81514477
2.526,-0.045769171,66.81514477
2.527,-0.05885647,66.81514477
2.528,-0.070986161,66.81514477
2.529,-0.080562233,66.81514477
2.53,-0.086627079,66.81514477
2.531,-0.088861496,66.81514477
2.532,-0.086307876,66.81514477
2.533,-0.079923828,66.81514477
2.534,-0.070028554,66.81514477
2.535,-0.057260458,66.81514477
2.536,-0.043534754,66.81514477
2.537,-0.029489848,66.81514477
2.538,-0.017040954,66.81514477
2.539,-0.00714568,66.81514477
2.54,-0.000761632,66.81514477
2.541,0.001472785,66.81514477
2.542,-0.000442429,66.81514477
2.543,-0.006507275,66.81514477
2.544,-0.015764145,66.81514477
2.545,-0.027893836,66.81514477
2.546,-0.041300337,66.81514477
2.547,-0.055026041,66.81514477
2.548,-0.067474935,66.81514477
2.549,-0.077051007,66.81514477
2.55,-0.08279665,66.81514477
2.551,-0.084392662,66.81514477
2.552,-0.081839043,66.81514477
2.553,-0.074497387,66.81514477
2.554,-0.063325303,66.81514477
2.555,-0.0495996,66.81514477
2.556,-0.034916289,66.81514477
2.557,-0.019913776,66.81514477
2.558,-0.006826477,66.81514477
2.559,0.003388,66.81514477
2.56,0.009772048,66.81514477
2.561,0.012006465,66.81514477
2.562,0.009772048,66.81514477
2.563,0.003707202,66.81514477
2.564,-0.006188073,66.81514477
2.565,-0.019275371,66.81514477
2.566,-0.033320277,66.81514477
2.567,-0.047684385,66.81514477
2.568,-0.060133279,66.81514477
2.569,-0.070347756,66.81514477
2.57,-0.076731804,66.81514477
2.571,-0.078647019,66.81514477
2.572,-0.076093399,66.81514477
2.573,-0.069070947,66.81514477
2.574,-0.058537267,66.81514477
2.575,-0.045449969,66.81514477
2.576,-0.03108586,66.81514477
2.577,-0.017040954,66.81514477
2.578,-0.004272858,66.81514477
2.579,0.005941619,66.81514477
2.58,0.011687262,66.81514477
2.581,0.013921679,66.81514477
2.582,0.011687262,66.81514477
2.583,0.005941619,66.81514477
2.584,-0.003634453,66.81514477
2.585,-0.015444942,66.81514477
2.586,-0.028851443,66.81514477
2.587,-0.042577147,66.81514477
2.588,-0.054706838,66.81514477
2.589,-0.06428291,66.81514477
2.59,-0.070347756,66.81514477
2.591,-0.072262971,66.81514477
2.592,-0.069709351,66.81514477
2.593,-0.063006101,66.81514477
2.594,-0.052791624,66.81514477
2.595,-0.040023528,66.81514477
2.596,-0.025978622,66.81514477
2.597,-0.012252918,66.81514477
2.598,-0.000123227,66.81514477
2.599,0.008495238,66.81514477
2.6,0.013921679,66.81514477
2.601,0.014879286,66.81514477
2.602,0.011687262,66.81514477
2.603,0.004984012,66.81514477
2.604,-0.005549668,66.81514477
2.605,-0.018317764,66.81514477
2.606,-0.032043467,66.81514477
2.607,-0.045769171,66.81514477
2.608,-0.05757966,66.81514477
2.609,-0.06683653,66.81514477
2.61,-0.071943768,66.81514477
2.611,-0.072582173,66.81514477
2.612,-0.068751744,66.81514477
2.613,-0.060771684,66.81514477
2.614,-0.0495996,66.81514477
2.615,-0.036512301,66.81514477
2.616,-0.022467395,66.81514477
2.617,-0.008741692,66.81514477
2.618,0.003068797,66.81514477
2.619,0.011687262,66.81514477
2.62,0.016475298,66.81514477
2.621,0.016794501,66.81514477
2.622,0.012644869,66.81514477
2.623,0.004984012,66.81514477
2.624,-0.006507275,66.81514477
2.625,-0.019913776,66.81514477
2.626,-0.034277884,66.81514477
2.627,-0.048003588,66.81514477
2.628,-0.060133279,66.81514477
2.629,-0.069390149,66.81514477
2.63,-0.074497387,66.81514477
2.631,-0.07481659,66.81514477
2.632,-0.070666959,66.81514477
2.633,-0.062048494,66.81514477
2.634,-0.049918802,66.81514477
2.635,-0.035235492,66.81514477
2.636,-0.019594574,66.81514477
2.637,-0.003953656,66.81514477
2.638,0.009452845,66.81514477
2.639,0.019667322,66.81514477
2.64,0.02605137,66.81514477
2.641,0.027966585,66.81514477
2.642,0.025412966,66.81514477
2.643,0.018709715,66.81514477
2.644,0.00881444,66.81514477
2.645,-0.002676846,66.81514477
2.646,-0.016083347,66.81514477
2.647,-0.029809051,66.81514477
2.648,-0.041938742,66.81514477
2.649,-0.051514814,66.81514477
2.65,-0.057260458,66.81514477
2.651,-0.058537267,66.81514477
2.652,-0.055664446,66.81514477
2.653,-0.048003588,66.81514477
2.654,-0.037469908,66.81514477
2.655,-0.02438261,66.81514477
2.656,-0.010656906,66.81514477
2.657,0.002749595,66.81514477
2.658,0.013921679,66.81514477
2.659,0.021901739,66.81514477
2.66,0.02605137,66.81514477
2.661,0.025732168,66.81514477
2.662,0.020944132,66.81514477
2.663,0.012325667,66.81514477
2.664,0.00083438,66.81514477
2.665,-0.012891323,66.81514477
2.666,-0.027574634,66.81514477
2.667,-0.041938742,66.81514477
2.668,-0.054068433,66.81514477
2.669,-0.063325303,66.81514477
2.67,-0.068113339,66.81514477
2.671,-0.068751744,66.81514477
2.672,-0.064921315,66.81514477
2.673,-0.056941255,66.81514477
2.674,-0.045769171,66.81514477
2.675,-0.03236267,66.81514477
2.676,-0.017998562,66.81514477
2.677,-0.003953656,66.81514477
2.678,0.007856833,66.81514477
2.679,0.017113703,66.81514477
2.68,0.022220942,66.81514477
2.681,0.023178549,66.81514477
2.682,0.019986525,66.81514477
2.683,0.012644869,66.81514477
2.684,0.002749595,66.81514477
2.685,-0.009699299,66.81514477
2.686,-0.0231058,66.81514477
2.687,-0.036193099,66.81514477
2.688,-0.047684385,66.81514477
2.689,-0.055983648,66.81514477
2.69,-0.060133279,66.81514477
2.691,-0.059814077,66.81514477
2.692,-0.055026041,66.81514477
2.693,-0.046407576,66.81514477
2.694,-0.034597087,66.81514477
2.695,-0.021190586,66.81514477
2.696,-0.00714568,66.81514477
2.697,0.006260821,66.81514477
2.698,0.017432905,66.81514477
2.699,0.025732168,66.81514477
2.7,0.030201002,66.81514477
2.701,0.030520204,66.81514477
2.702,0.026370573,66.81514477
2.703,0.018390513,66.81514477
2.704,0.007218428,66.81514477
2.705,-0.006188073,66.81514477
2.706,-0.020232978,66.81514477
2.707,-0.033958682,66.81514477
2.708,-0.045130766,66.81514477
2.709,-0.053430029,66.81514477
2.71,-0.057260458,66.81514477
2.711,-0.056941255,66.81514477
2.712,-0.052472421,66.81514477
2.713,-0.044173159,66.81514477
2.714,-0.033001075,66.81514477
2.715,-0.019594574,66.81514477
2.716,-0.005549668,66.81514477
2.717,0.007537631,66.81514477
2.718,0.01934812,66.81514477
2.719,0.027647382,66.81514477
2.72,0.032116216,66.81514477
2.721,0.032116216,66.81514477
2.722,0.027647382,66.81514477
2.723,0.01934812,66.81514477
2.724,0.008176036,66.81514477
2.725,-0.004272858,66.81514477
2.726,-0.017679359,66.81514477
2.727,-0.030128253,66.81514477
2.728,-0.040981135,66.81514477
2.729,-0.04832279,66.81514477
2.73,-0.051834017,66.81514477
2.731,-0.051195612,66.81514477
2.732,-0.045769171,66.81514477
2.733,-0.036512301,66.81514477
2.734,-0.02438261,66.81514477
2.735,-0.010656906,66.81514477
2.736,0.003388,66.81514477
2.737,0.015836893,66.81514477
2.738,0.026689775,66.81514477
2.739,0.034031431,66.81514477
2.74,0.037223455,66.81514477
2.741,0.035946645,66.81514477
2.742,0.030520204,66.81514477
2.743,0.020944132,66.81514477
2.744,0.008495238,66.81514477
2.745,-0.00586887,66.81514477
2.746,-0.020871383,66.81514477
2.747,-0.034916289,66.81514477
2.748,-0.046726778,66.81514477
2.749,-0.055026041,66.81514477
2.75,-0.05885647,66.81514477
2.751,-0.058218065,66.81514477
2.752,-0.053110826,66.81514477
2.753,-0.044173159,66.81514477
2.754,-0.032043467,66.81514477
2.755,-0.017998562,66.81514477
2.756,-0.003315251,66.81514477
2.757,0.01009125,66.81514477
2.758,0.021582537,66.81514477
2.759,0.029881799,66.81514477
2.76,0.033712228,66.81514477
2.761,0.033073823,66.81514477
2.762,0.027966585,66.81514477
2.763,0.019028917,66.81514477
2.764,0.007218428,66.81514477
2.765,-0.00586887,66.81514477
2.766,-0.020232978,66.81514477
2.767,-0.03363948,66.81514477
2.768,-0.045130766,66.81514477
2.769,-0.053110826,66.81514477
2.77,-0.056941255,66.81514477
2.771,-0.056622053,66.81514477
2.772,-0.051514814,66.81514477
2.773,-0.042896349,66.81514477
2.774,-0.031405063,66.81514477
2.775,-0.018317764,66.81514477
2.776,-0.004592061,66.81514477
2.777,0.008176036,66.81514477
2.778,0.018709715,66.81514477
2.779,0.02605137,66.81514477
2.78,0.029562597,66.81514477
2.781,0.02860499,66.81514477
2.782,0.023497751,66.81514477
2.783,0.014879286,66.81514477
2.784,0.003707202,66.81514477
2.785,-0.009380097,66.81514477
2.786,-0.022467395,66.81514477
2.787,-0.034597087,66.81514477
2.788,-0.044173159,66.81514477
2.789,-0.050557207,66.81514477
2.79,-0.052472421,66.81514477
2.791,-0.050238005,66.81514477
2.792,-0.043534754,66.81514477
2.793,-0.033001075,66.81514477
2.794,-0.019913776,66.81514477
2.795,-0.005549668,66.81514477
2.796,0.008495238,66.81514477
2.797,0.021263334,66.81514477
2.798,0.031477811,66.81514477
2.799,0.038181062,66.81514477
2.8,0.040096276,66.81514477
2.801,0.037861859,66.81514477
2.802,0.031158609,66.81514477
2.803,0.020944132,66.81514477
2.804,0.008176036,66.81514477
2.805,-0.00586887,66.81514477
2.806,-0.020552181,66.81514477
2.807,-0.033958682,66.81514477
2.808,-0.044811564,66.81514477
2.809,-0.052153219,66.81514477
2.81,-0.055026041,66.81514477
2.811,-0.053110826,66.81514477
2.812,-0.046726778,66.81514477
2.813,-0.036512301,66.81514477
2.814,-0.023425003,66.81514477
2.815,-0.008741692,66.81514477
2.816,0.006260821,66.81514477
2.817,0.019667322,66.81514477
2.818,0.030839406,66.81514477
2.819,0.038500264,66.81514477
2.82,0.042011491,66.81514477
2.821,0.041053883,66.81514477
2.822,0.036265847,66.81514477
2.823,0.027966585,66.81514477
2.824,0.017113703,66.81514477
2.825,0.004984012,66.81514477
2.826,-0.007784085,66.81514477
2.827,-0.018956169,66.81514477
2.828,-0.027255431,66.81514477
2.829,-0.031405063,66.81514477
2.83,-0.03108586,66.81514477
2.831,-0.026297824,66.81514477
2.832,-0.016721752,66.81514477
2.833,-0.003953656,66.81514477
2.834,0.01136806,66.81514477
2.835,0.028285787,66.81514477
2.836,0.045522717,66.81514477
2.837,0.060844433,66.81514477
2.838,0.073612529,66.81514477
2.839,0.082550196,66.81514477
2.84,0.08701903,66.81514477
2.841,0.086380625,66.81514477
2.842,0.081592589,66.81514477
2.843,0.072654922,66.81514477
2.844,0.061163635,66.81514477
2.845,0.048076336,66.81514477
2.846,0.034989038,66.81514477
2.847,0.022859346,66.81514477
2.848,0.013602477,66.81514477
2.849,0.007537631,66.81514477
2.85,0.006580024,66.81514477
2.851,0.009452845,66.81514477
2.852,0.017432905,66.81514477
2.853,0.028924192,66.81514477
2.854,0.043607503,66.81514477
2.855,0.059248421,66.81514477
2.856,0.075208541,66.81514477
2.857,0.089891852,66.81514477
2.858,0.102021543,66.81514477
2.859,0.110320806,66.81514477
2.86,0.114151234,66.81514477
2.861,0.113832032,66.81514477
2.862,0.108724794,66.81514477
2.863,0.100106329,66.81514477
2.864,0.088934244,66.81514477
2.865,0.075846946,66.81514477
2.866,0.062440445,66.81514477
2.867,0.050310753,66.81514477
2.868,0.040734681,66.81514477
2.869,0.034350633,66.81514477
2.87,0.031797014,66.81514477
2.871,0.033393026,66.81514477
2.872,0.039138669,66.81514477
2.873,0.048076336,66.81514477
2.874,0.059248421,66.81514477
2.875,0.071378112,66.81514477
2.876,0.083507803,66.81514477
2.877,0.09372228,66.81514477
2.878,0.101383138,66.81514477
2.879,0.105213567,66.81514477
2.88,0.105213567,66.81514477
2.881,0.100425531,66.81514477
2.882,0.091168661,66.81514477
2.883,0.078400565,66.81514477
2.884,0.063078849,66.81514477
2.885,0.046480324,66.81514477
2.886,0.029881799,66.81514477
2.887,0.014879286,66.81514477
2.888,0.003068797,66.81514477
2.889,-0.005549668,66.81514477
2.89,-0.009699299,66.81514477
2.891,-0.009380097,66.81514477
2.892,-0.004911263,66.81514477
2.893,0.003388,66.81514477
2.894,0.013602477,66.81514477
2.895,0.025093763,66.81514477
2.896,0.03658505,66.81514477
2.897,0.046480324,66.81514477
2.898,0.053502777,66.81514477
2.899,0.056694801,66.81514477
2.9,0.056056397,66.81514477
2.901,0.050629956,66.81514477
2.902,0.041692288,66.81514477
2.903,0.029562597,66.81514477
2.904,0.014879286,66.81514477
2.905,-0.000442429,66.81514477
2.906,-0.015764145,66.81514477
2.907,-0.029489848,66.81514477
2.908,-0.04034273,66.81514477
2.909,-0.047365183,66.81514477
2.91,-0.049918802,66.81514477
2.911,-0.048003588,66.81514477
2.912,-0.04161954,66.81514477
2.913,-0.03236267,66.81514477
2.914,-0.020552181,66.81514477
2.915,-0.007464882,66.81514477
2.916,0.005303214,66.81514477
2.917,0.016475298,66.81514477
2.918,0.025093763,66.81514477
2.919,0.029881799,66.81514477
2.92,0.030520204,66.81514477
2.921,0.026689775,66.81514477
2.922,0.018709715,66.81514477
2.923,0.007537631,66.81514477
2.924,-0.005549668,66.81514477
2.925,-0.019913776,66.81514477
2.926,-0.033958682,66.81514477
2.927,-0.046088373,66.81514477
2.928,-0.055345243,66.81514477
2.929,-0.060771684,66.81514477
2.93,-0.061410089,66.81514477
2.931,-0.05757966,66.81514477
2.932,-0.049918802,66.81514477
2.933,-0.038746718,66.81514477
2.934,-0.025340217,66.81514477
2.935,-0.011614513,66.81514477
2.936,0.001472785,66.81514477
2.937,0.012644869,66.81514477
2.938,0.020944132,66.81514477
2.939,0.025093763,66.81514477
2.94,0.025412966,66.81514477
2.941,0.020944132,66.81514477
2.942,0.012644869,66.81514477
2.943,0.001472785,66.81514477
2.944,-0.012252918,66.81514477
2.945,-0.026936229,66.81514477
2.946,-0.040981135,66.81514477
2.947,-0.053110826,66.81514477
2.948,-0.062048494,66.81514477
2.949,-0.06683653,66.81514477
2.95,-0.067474935,66.81514477
2.951,-0.063644506,66.81514477
2.952,-0.055345243,66.81514477
2.953,-0.043853956,66.81514477
2.954,-0.029809051,66.81514477
2.955,-0.01512574,66.81514477
2.956,-0.000761632,66.81514477
2.957,0.01136806,66.81514477
2.958,0.020624929,66.81514477
2.959,0.025732168,66.81514477
2.96,0.026370573,66.81514477
2.961,0.022220942,66.81514477
2.962,0.014240881,66.81514477
2.963,0.003068797,66.81514477
2.964,-0.010337704,66.81514477
2.965,-0.024701812,66.81514477
2.966,-0.038108313,66.81514477
2.967,-0.049918802,66.81514477
2.968,-0.058537267,66.81514477
2.969,-0.063325303,66.81514477
2.97,-0.063963708,66.81514477
2.971,-0.060133279,66.81514477
2.972,-0.052153219,66.81514477
2.973,-0.040661932,66.81514477
2.974,-0.027255431,66.81514477
2.975,-0.012891323,66.81514477
2.976,0.001153583,66.81514477
2.977,0.012964072,66.81514477
2.978,0.021901739,66.81514477
2.979,0.026689775,66.81514477
2.98,0.027008978,66.81514477
2.981,0.022540144,66.81514477
2.982,0.013602477,66.81514477
2.983,0.001472785,66.81514477
2.984,-0.012891323,66.81514477
2.985,-0.028532241,66.81514477
2.986,-0.043853956,66.81514477
2.987,-0.05757966,66.81514477
2.988,-0.068113339,66.81514477
2.989,-0.075454995,66.81514477
2.99,-0.078327816,66.81514477
2.991,-0.077051007,66.81514477
2.992,-0.071943768,66.81514477
2.993,-0.063325303,66.81514477
2.994,-0.052472421,66.81514477
2.995,-0.04034273,66.81514477
2.996,-0.028213039,66.81514477
2.997,-0.017679359,66.81514477
2.998,-0.009380097,66.81514477
2.999,-0.003953656,66.81514477
3,-0.001719239,66.81514477
3.001,-0.001719239,66.81514477
3.002,-0.003953656,66.81514477
3.003,-0.006826477,66.81514477
3.004,-0.008741692,66.81514477
3.005,-0.008103287,66.81514477
3.006,-0.002357644,66.81514477
3.007,0.009452845,66.81514477
3.008,0.029881799,66.81514477
3.009,0.059248421,66.81514477
3.01,0.098510317,66.81514477
3.011,0.147348285,66.81514477
3.012,0.20512392,66.81514477
3.013,0.270241211,66.81514477
3.014,0.341104145,66.81514477
3.015,0.414839901,66.81514477
3.016,0.489214061,66.81514477
3.017,0.561673007,66.81514477
3.018,0.630620727,66.81514477
3.019,0.693822803,66.81514477
3.02,0.750002427,66.81514477
3.021,0.797563585,66.81514477
3.022,0.834910267,66.81514477
3.023,0.860765662,66.81514477
3.024,0.874810568,66.81514477
3.025,0.877683389,66.81514477
3.026,0.869384127,66.81514477
3.027,0.851508792,66.81514477
3.028,0.825014992,66.81514477
3.029,0.791817942,66.81514477
3.03,0.752236844,66.81514477
3.031,0.707867709,66.81514477
3.032,0.659029741,66.81514477
3.033,0.606680547,66.81514477
3.034,0.551139328,66.81514477
3.035,0.492725288,66.81514477
3.036,0.431438426,63.89776358
3.037,0.368236349,63.89776358
3.038,0.303757463,63.89776358
3.039,0.238640173,63.89776358
3.04,0.174799692,63.89776358
3.041,0.112555222,63.89776358
3.042,0.05382198,63.89776358
3.043,-0.000123227,63.89776358
3.044,-0.048961195,63.89776358
3.045,-0.090457508,63.89776358
3.046,-0.123654558,63.89776358
3.047,-0.147594738,63.89776358
3.048,-0.161639644,63.89776358
3.049,-0.165789276,63.89776358
3.05,-0.161001239,63.89776358
3.051,-0.147913941,63.89776358
3.052,-0.128442594,63.89776358
3.053,-0.104502414,63.89776358
3.054,-0.078008614,63.89776358
3.055,-0.050876409,63.89776358
3.056,-0.025659419,63.89776358
3.057,-0.003634453,63.89776358
3.058,0.012964072,63.89776358
3.059,0.024136156,63.89776358
3.06,0.029562597,63.89776358
3.061,0.028924192,63.89776358
3.062,0.022859346,63.89776358
3.063,0.012325667,63.89776358
3.064,-0.000761632,63.89776358
3.065,-0.015764145,63.89776358
3.066,-0.03108586,63.89776358
3.067,-0.044811564,63.89776358
3.068,-0.055664446,63.89776358
3.069,-0.062686898,63.89776358
3.07,-0.065240518,63.89776358
3.071,-0.063006101,63.89776358
3.072,-0.056941255,63.89776358
3.073,-0.047684385,63.89776358
3.074,-0.036512301,63.89776358
3.075,-0.024701812,63.89776358
3.076,-0.01384893,63.89776358
3.077,-0.004911263,63.89776358
3.078,0.001153583,63.89776358
3.079,0.003388,63.89776358
3.08,0.001153583,63.89776358
3.081,-0.005230465,63.89776358
3.082,-0.01512574,63.89776358
3.083,-0.027574634,63.89776358
3.084,-0.04161954,63.89776358
3.085,-0.055664446,63.89776358
3.086,-0.068751744,63.89776358
3.087,-0.078966221,63.89776358
3.088,-0.085988674,63.89776358
3.089,-0.088542293,63.89776358
3.09,-0.086627079,63.89776358
3.091,-0.079923828,63.89776358
3.092,-0.069709351,63.89776358
3.093,-0.05630285,63.89776358
3.094,-0.041300337,63.89776358
3.095,-0.025659419,63.89776358
3.096,-0.010976109,63.89776358
3.097,0.00083438,63.89776358
3.098,0.009133643,63.89776358
3.099,0.013283274,63.89776358
3.1,0.012644869,63.89776358
3.101,0.007856833,63.89776358
3.102,-0.000123227,63.89776358
3.103,-0.011614513,63.89776358
3.104,-0.02438261,63.89776358
3.105,-0.037789111,63.89776358
3.106,-0.049918802,63.89776358
3.107,-0.060133279,63.89776358
3.108,-0.066517327,63.89776358
3.109,-0.068432542,63.89776358
3.11,-0.066198125,63.89776358
3.111,-0.059814077,63.89776358
3.112,-0.0495996,63.89776358
3.113,-0.036831504,63.89776358
3.114,-0.022786598,63.89776358
3.115,-0.008422489,63.89776358
3.116,0.004664809,63.89776358
3.117,0.015198489,63.89776358
3.118,0.022859346,63.89776358
3.119,0.02605137,63.89776358
3.12,0.025093763,63.89776358
3.121,0.019667322,63.89776358
3.122,0.010729655,63.89776358
3.123,-0.000442429,63.89776358
3.124,-0.013529728,63.89776358
3.125,-0.026936229,63.89776358
3.126,-0.03906592,63.89776358
3.127,-0.048641993,63.89776358
3.128,-0.054706838,63.89776358
3.129,-0.056622053,63.89776358
3.13,-0.054068433,63.89776358
3.131,-0.046726778,63.89776358
3.132,-0.036193099,63.89776358
3.133,-0.022786598,63.89776358
3.134,-0.008103287,63.89776358
3.135,0.006260821,63.89776358
3.136,0.018709715,63.89776358
3.137,0.028924192,63.89776358
3.138,0.03530824,63.89776358
3.139,0.037542657,63.89776358
3.14,0.03530824,63.89776358
3.141,0.029243394,63.89776358
3.142,0.019667322,63.89776358
3.143,0.007537631,63.89776358
3.144,-0.005549668,63.89776358
3.145,-0.018956169,63.89776358
3.146,-0.03108586,63.89776358
3.147,-0.04034273,63.89776358
3.148,-0.045769171,63.89776358
3.149,-0.047045981,63.89776358
3.15,-0.043534754,63.89776358
3.151,-0.035873896,63.89776358
3.152,-0.02438261,63.89776358
3.153,-0.010337704,63.89776358
3.154,0.004984012,63.89776358
3.155,0.019986525,63.89776358
3.156,0.033712228,63.89776358
3.157,0.04456511,63.89776358
3.158,0.05126836,63.89776358
3.159,0.05382198,63.89776358
3.16,0.05126836,63.89776358
3.161,0.044245908,63.89776358
3.162,0.034031431,63.89776358
3.163,0.020944132,63.89776358
3.164,0.006899226,63.89776358
3.165,-0.00714568,63.89776358
3.166,-0.020232978,63.89776358
3.167,-0.030128253,63.89776358
3.168,-0.036193099,63.89776358
3.169,-0.037789111,63.89776358
3.17,-0.034916289,63.89776358
3.171,-0.028213039,63.89776358
3.172,-0.017679359,63.89776358
3.173,-0.004592061,63.89776358
3.174,0.009772048,63.89776358
3.175,0.024455358,63.89776358
3.176,0.038181062,63.89776358
3.177,0.048714741,63.89776358
3.178,0.055737194,63.89776358
3.179,0.058290813,63.89776358
3.18,0.056375599,63.89776358
3.181,0.049991551,63.89776358
3.182,0.040096276,63.89776358
3.183,0.027966585,63.89776358
3.184,0.014560084,63.89776358
3.185,0.001791988,63.89776358
3.186,-0.009699299,63.89776358
3.187,-0.018317764,63.89776358
3.188,-0.0231058,63.89776358
3.189,-0.023744205,63.89776358
3.19,-0.019594574,63.89776358
3.191,-0.011295311,63.89776358
3.192,0.00083438,63.89776358
3.193,0.014879286,63.89776358
3.194,0.030201002,63.89776358
3.195,0.045203515,63.89776358
3.196,0.058290813,63.89776358
3.197,0.068824493,63.89776358
3.198,0.075527743,63.89776358
3.199,0.078081363,63.89776358
3.2,0.075846946,63.89776358
3.201,0.0697821,63.89776358
3.202,0.060206028,63.89776358
3.203,0.048395539,63.89776358
3.204,0.03530824,63.89776358
3.205,0.022220942,63.89776358
3.206,0.011048857,63.89776358
3.207,0.002749595,63.89776358
3.208,-0.001400037,63.89776358
3.209,-0.001080834,63.89776358
3.21,0.004026404,63.89776358
3.211,0.013283274,63.89776358
3.212,0.026370573,63.89776358
3.213,0.042330693,63.89776358
3.214,0.058929218,63.89776358
3.215,0.075527743,63.89776358
3.216,0.089891852,63.89776358
3.217,0.101702341,63.89776358
3.218,0.109043996,63.89776358
3.219,0.11223602,63.89776358
3.22,0.11095921,63.89776358
3.221,0.105532769,63.89776358
3.222,0.096595102,63.89776358
3.223,0.085103815,63.89776358
3.224,0.072654922,63.89776358
3.225,0.06052523,63.89776358
3.226,0.049672348,63.89776358
3.227,0.042011491,63.89776358
3.228,0.038181062,63.89776358
3.229,0.038500264,63.89776358
3.23,0.043607503,63.89776358
3.231,0.052864372,63.89776358
3.232,0.065313266,63.89776358
3.233,0.080315779,63.89776358
3.234,0.0962759,63.89776358
3.235,0.111597615,63.89776358
3.236,0.125642521,63.89776358
3.237,0.136814605,63.89776358
3.238,0.144475463,63.89776358
3.239,0.147348285,63.89776358
3.24,0.146071475,63.89776358
3.241,0.140645034,63.89776358
3.242,0.131707367,63.89776358
3.243,0.120535283,63.89776358
3.244,0.108724794,63.89776358
3.245,0.096914304,63.89776358
3.246,0.086699828,63.89776358
3.247,0.079677375,63.89776358
3.248,0.076166148,63.89776358
3.249,0.076804553,63.89776358
3.25,0.081911791,63.89776358
3.251,0.091168661,63.89776358
3.252,0.103617555,63.89776358
3.253,0.118300866,63.89776358
3.254,0.133941784,63.89776358
3.255,0.148625094,63.89776358
3.256,0.16139319,63.89776358
3.257,0.171288465,63.89776358
3.258,0.177034108,63.89776358
3.259,0.17863012,63.89776358
3.26,0.176076501,63.89776358
3.261,0.169373251,63.89776358
3.262,0.160116381,63.89776358
3.263,0.148625094,63.89776358
3.264,0.1361762,63.89776358
3.265,0.124365711,63.89776358
3.266,0.114470437,63.89776358
3.267,0.107128781,63.89776358
3.268,0.10425596,63.89776358
3.269,0.105213567,63.89776358
3.27,0.11095921,63.89776358
3.271,0.120535283,63.89776358
3.272,0.132984176,63.89776358
3.273,0.147667487,63.89776358
3.274,0.16267,63.89776358
3.275,0.177034108,63.89776358
3.276,0.188844597,63.89776358
3.277,0.19714386,63.89776358
3.278,0.200974289,63.89776358
3.279,0.200335884,63.89776358
3.28,0.194909443,63.89776358
3.281,0.185014169,63.89776358
3.282,0.171607667,63.89776358
3.283,0.155647547,63.89776358
3.284,0.138410617,63.89776358
3.285,0.121812092,63.89776358
3.286,0.107128781,63.89776358
3.287,0.095637495,63.89776358
3.288,0.08829584,63.89776358
3.289,0.085423018,63.89776358
3.29,0.08701903,63.89776358
3.291,0.092445471,63.89776358
3.292,0.100744733,63.89776358
3.293,0.110640008,63.89776358
3.294,0.12149289,63.89776358
3.295,0.131707367,63.89776358
3.296,0.139687427,63.89776358
3.297,0.144156261,63.89776358
3.298,0.144794665,63.89776358
3.299,0.140964237,63.89776358
3.3,0.132345772,63.89776358
3.301,0.119577675,63.89776358
3.302,0.103936757,63.89776358
3.303,0.08574222,63.89776358
3.304,0.066909278,63.89776358
3.305,0.048395539,63.89776358
3.306,0.031477811,63.89776358
3.307,0.01807131,63.89776358
3.308,0.008495238,63.89776358
3.309,0.003388,63.89776358
3.31,0.002749595,63.89776358
3.311,0.005941619,63.89776358
3.312,0.012325667,63.89776358
3.313,0.020624929,63.89776358
3.314,0.029881799,63.89776358
3.315,0.038500264,63.89776358
3.316,0.044884312,63.89776358
3.317,0.048076336,63.89776358
3.318,0.047118729,63.89776358
3.319,0.042330693,63.89776358
3.32,0.033393026,63.89776358
3.321,0.020305727,63.89776358
3.322,0.004664809,63.89776358
3.323,-0.012891323,63.89776358
3.324,-0.03108586,63.89776358
3.325,-0.048003588,63.89776358
3.326,-0.062686898,63.89776358
3.327,-0.073858983,63.89776358
3.328,-0.080881436,63.89776358
3.329,-0.083115852,63.89776358
3.33,-0.080562233,63.89776358
3.331,-0.074178185,63.89776358
3.332,-0.06428291,63.89776358
3.333,-0.052472421,63.89776358
3.334,-0.039704325,63.89776358
3.335,-0.028213039,63.89776358
3.336,-0.018317764,63.89776358
3.337,-0.012252918,63.89776358
3.338,-0.010337704,63.89776358
3.339,-0.012891323,63.89776358
3.34,-0.019913776,63.89776358
3.341,-0.03108586,63.89776358
3.342,-0.045130766,63.89776358
3.343,-0.060771684,63.89776358
3.344,-0.076731804,63.89776358
3.345,-0.091734317,63.89776358
3.346,-0.104502414,63.89776358
3.347,-0.113759283,63.89776358
3.348,-0.118547319,63.89776358
3.349,-0.118547319,63.89776358
3.35,-0.114078486,63.89776358
3.351,-0.105140818,63.89776358
3.352,-0.093330329,63.89776358
3.353,-0.079285424,63.89776358
3.354,-0.064602113,63.89776358
3.355,-0.050557207,63.89776358
3.356,-0.038427516,63.89776358
3.357,-0.030128253,63.89776358
3.358,-0.025978622,63.89776358
3.359,-0.026297824,63.89776358
3.36,-0.03108586,63.89776358
3.361,-0.039385123,63.89776358
3.362,-0.050876409,63.89776358
3.363,-0.06428291,63.89776358
3.364,-0.078327816,63.89776358
3.365,-0.091734317,63.89776358
3.366,-0.103225604,63.89776358
3.367,-0.111524867,63.89776358
3.368,-0.115674498,63.89776358
3.369,-0.115674498,63.89776358
3.37,-0.110886462,63.89776358
3.371,-0.102267997,63.89776358
3.372,-0.09077671,63.89776358
3.373,-0.077370209,63.89776358
3.374,-0.063644506,63.89776358
3.375,-0.050557207,63.89776358
3.376,-0.040023528,63.89776358
3.377,-0.032681872,63.89776358
3.378,-0.029489848,63.89776358
3.379,-0.030447455,63.89776358
3.38,-0.035235492,63.89776358
3.381,-0.043534754,63.89776358
3.382,-0.054387636,63.89776358
3.383,-0.066517327,63.89776358
3.384,-0.078966221,63.89776358
3.385,-0.09077671,63.89776358
3.386,-0.10003358,63.89776358
3.387,-0.106098426,63.89776358
3.388,-0.107375235,63.89776358
3.389,-0.104502414,63.89776358
3.39,-0.097160758,63.89776358
3.391,-0.085988674,63.89776358
3.392,-0.072582173,63.89776358
3.393,-0.057898862,63.89776358
3.394,-0.042896349,63.89776358
3.395,-0.029489848,63.89776358
3.396,-0.018636966,63.89776358
3.397,-0.011295311,63.89776358
3.398,-0.008103287,63.89776358
3.399,-0.009699299,63.89776358
3.4,-0.015764145,63.89776358
3.401,-0.025340217,63.89776358
3.402,-0.038108313,63.89776358
3.403,-0.052791624,63.89776358
3.404,-0.067474935,63.89776358
3.405,-0.081200638,63.89776358
3.406,-0.09205352,63.89776358
3.407,-0.099395175,63.89776358
3.408,-0.102267997,63.89776358
3.409,-0.100352782,63.89776358
3.41,-0.094287937,63.89776358
3.411,-0.084392662,63.89776358
3.412,-0.071624566,63.89776358
3.413,-0.05757966,63.89776358
3.414,-0.042896349,63.89776358
3.415,-0.029489848,63.89776358
3.416,-0.018636966,63.89776358
3.417,-0.010976109,63.89776358
3.418,-0.007464882,63.89776358
3.419,-0.008422489,63.89776358
3.42,-0.013529728,63.89776358
3.421,-0.022148193,63.89776358
3.422,-0.03363948,63.89776358
3.423,-0.046407576,63.89776358
3.424,-0.059494874,63.89776358
3.425,-0.071305363,63.89776358
3.426,-0.080562233,63.89776358
3.427,-0.086307876,63.89776358
3.428,-0.088223091,63.89776358
3.429,-0.085669472,63.89776358
3.43,-0.078647019,63.89776358
3.431,-0.068113339,63.89776358
3.432,-0.055026041,63.89776358
3.433,-0.040661932,63.89776358
3.434,-0.026617027,63.89776358
3.435,-0.013529728,63.89776358
3.436,-0.003315251,63.89776358
3.437,0.003068797,63.89776358
3.438,0.004984012,63.89776358
3.439,0.002749595,63.89776358
3.44,-0.003953656,63.89776358
3.441,-0.014168133,63.89776358
3.442,-0.026617027,63.89776358
3.443,-0.040661932,63.89776358
3.444,-0.055026041,63.89776358
3.445,-0.067794137,63.89776358
3.446,-0.078008614,63.89776358
3.447,-0.084392662,63.89776358
3.448,-0.086307876,63.89776358
3.449,-0.083754257,63.89776358
3.45,-0.076731804,63.89776358
3.451,-0.065878922,63.89776358
3.452,-0.053110826,63.89776358
3.453,-0.038746718,63.89776358
3.454,-0.02438261,63.89776358
3.455,-0.011614513,63.89776358
3.456,-0.001400037,63.89776358
3.457,0.004984012,63.89776358
3.458,0.007218428,63.89776358
3.459,0.005303214,63.89776358
3.46,-0.001080834,63.89776358
3.461,-0.010976109,63.89776358
3.462,-0.023744205,63.89776358
3.463,-0.037789111,63.89776358
3.464,-0.051834017,63.89776358
3.465,-0.064602113,63.89776358
3.466,-0.074497387,63.89776358
3.467,-0.080243031,63.89776358
3.468,-0.081839043,63.89776358
3.469,-0.078327816,63.89776358
3.47,-0.070666959,63.89776358
3.471,-0.059175672,63.89776358
3.472,-0.045449969,63.89776358
3.473,-0.030128253,63.89776358
3.474,-0.01512574,63.89776358
3.475,-0.001719239,63.89776358
3.476,0.008495238,63.89776358
3.477,0.015198489,63.89776358
3.478,0.017752108,63.89776358
3.479,0.015517691,63.89776358
3.48,0.009452845,63.89776358
3.481,-0.000123227,63.89776358
3.482,-0.012891323,63.89776358
3.483,-0.026936229,63.89776358
3.484,-0.041300337,63.89776358
3.485,-0.054068433,63.89776358
3.486,-0.06428291,63.89776358
3.487,-0.070666959,63.89776358
3.488,-0.072582173,63.89776358
3.489,-0.070028554,63.89776358
3.49,-0.063006101,63.89776358
3.491,-0.052153219,63.89776358
3.492,-0.038746718,63.89776358
3.493,-0.023744205,63.89776358
3.494,-0.009060894,63.89776358
3.495,0.004345607,63.89776358
3.496,0.014240881,63.89776358
3.497,0.020624929,63.89776358
3.498,0.022540144,63.89776358
3.499,0.019986525,63.89776358
3.5,0.012964072,63.89776358
3.501,0.002749595,63.89776358
3.502,-0.010018501,63.89776358
3.503,-0.02438261,63.89776358
3.504,-0.038427516,63.89776358
3.505,-0.051195612,63.89776358
3.506,-0.061090886,63.89776358
3.507,-0.067155732,63.89776358
3.508,-0.069070947,63.89776358
3.509,-0.066198125,63.89776358
3.51,-0.059175672,63.89776358
3.511,-0.04832279,63.89776358
3.512,-0.034916289,63.89776358
3.513,-0.019913776,63.89776358
3.514,-0.004911263,63.89776358
3.515,0.008495238,63.89776358
3.516,0.019028917,63.89776358
3.517,0.02605137,63.89776358
3.518,0.028924192,63.89776358
3.519,0.027008978,63.89776358
3.52,0.021263334,63.89776358
3.521,0.012006465,63.89776358
3.522,0.00083438,63.89776358
3.523,-0.012252918,63.89776358
3.524,-0.025340217,63.89776358
3.525,-0.036831504,63.89776358
3.526,-0.046088373,63.89776358
3.527,-0.051514814,63.89776358
3.528,-0.053110826,63.89776358
3.529,-0.050557207,63.89776358
3.53,-0.043853956,63.89776358
3.531,-0.034277884,63.89776358
3.532,-0.022148193,63.89776358
3.533,-0.009060894,63.89776358
3.534,0.004026404,63.89776358
3.535,0.015198489,63.89776358
3.536,0.023816954,63.89776358
3.537,0.02860499,63.89776358
3.538,0.028924192,63.89776358
3.539,0.025093763,63.89776358
3.54,0.017432905,63.89776358
3.541,0.006899226,63.89776358
3.542,-0.006188073,63.89776358
3.543,-0.020232978,63.89776358
3.544,-0.033958682,63.89776358
3.545,-0.046088373,63.89776358
3.546,-0.055026041,63.89776358
3.547,-0.060133279,63.89776358
3.548,-0.060771684,63.89776358
3.549,-0.056622053,63.89776358
3.55,-0.048641993,63.89776358
3.551,-0.037150706,63.89776358
3.552,-0.023744205,63.89776358
3.553,-0.009380097,63.89776358
3.554,0.004026404,63.89776358
3.555,0.015517691,63.89776358
3.556,0.024136156,63.89776358
3.557,0.029243394,63.89776358
3.558,0.029881799,63.89776358
3.559,0.02605137,63.89776358
3.56,0.018390513,63.89776358
3.561,0.007537631,63.89776358
3.562,-0.005230465,63.89776358
3.563,-0.018956169,63.89776358
3.564,-0.032043467,63.89776358
3.565,-0.043215552,63.89776358
3.566,-0.051514814,63.89776358
3.567,-0.055664446,63.89776358
3.568,-0.055345243,63.89776358
3.569,-0.050238005,63.89776358
3.57,-0.041300337,63.89776358
3.571,-0.029170646,63.89776358
3.572,-0.01512574,63.89776358
3.573,-0.000123227,63.89776358
3.574,0.013602477,63.89776358
3.575,0.025093763,63.89776358
3.576,0.033393026,63.89776358
3.577,0.037542657,63.89776358
3.578,0.037223455,63.89776358
3.579,0.032435419,63.89776358
3.58,0.023497751,63.89776358
3.581,0.01136806,63.89776358
3.582,-0.002676846,63.89776358
3.583,-0.017998562,63.89776358
3.584,-0.032681872,63.89776358
3.585,-0.045769171,63.89776358
3.586,-0.055664446,63.89776358
3.587,-0.061410089,63.89776358
3.588,-0.062367696,63.89776358
3.589,-0.058218065,63.89776358
3.59,-0.049918802,63.89776358
3.591,-0.037789111,63.89776358
3.592,-0.023744205,63.89776358
3.593,-0.008422489,63.89776358
3.594,0.005941619,63.89776358
3.595,0.018390513,63.89776358
3.596,0.027966585,63.89776358
3.597,0.033712228,63.89776358
3.598,0.034989038,63.89776358
3.599,0.032116216,63.89776358
3.6,0.025093763,63.89776358
3.601,0.014560084,63.89776358
3.602,0.00211119,63.89776358
3.603,-0.011614513,63.89776358
3.604,-0.025021015,63.89776358
3.605,-0.036831504,63.89776358
3.606,-0.045769171,63.89776358
3.607,-0.050876409,63.89776358
3.608,-0.051834017,63.89776358
3.609,-0.04832279,63.89776358
3.61,-0.040981135,63.89776358
3.611,-0.030447455,63.89776358
3.612,-0.017679359,63.89776358
3.613,-0.004272858,63.89776358
3.614,0.007856833,63.89776358
3.615,0.018390513,63.89776358
3.616,0.025412966,63.89776358
3.617,0.02860499,63.89776358
3.618,0.027647382,63.89776358
3.619,0.022540144,63.89776358
3.62,0.013921679,63.89776358
3.621,0.003068797,63.89776358
3.622,-0.009699299,63.89776358
3.623,-0.0231058,63.89776358
3.624,-0.035554694,63.89776358
3.625,-0.045769171,63.89776358
3.626,-0.052791624,63.89776358
3.627,-0.055983648,63.89776358
3.628,-0.054706838,63.89776358
3.629,-0.048961195,63.89776358
3.63,-0.039385123,63.89776358
3.631,-0.026936229,63.89776358
3.632,-0.012572121,63.89776358
3.633,0.00211119,63.89776358
3.634,0.015517691,63.89776358
3.635,0.027008978,63.89776358
3.636,0.034989038,63.89776358
3.637,0.038500264,63.89776358
3.638,0.037542657,63.89776358
3.639,0.031477811,63.89776358
3.64,0.021582537,63.89776358
3.641,0.008495238,63.89776358
3.642,-0.006188073,63.89776358
3.643,-0.021190586,63.89776358
3.644,-0.035235492,63.89776358
3.645,-0.047045981,63.89776358
3.646,-0.055026041,63.89776358
3.647,-0.05885647,63.89776358
3.648,-0.058218065,63.89776358
3.649,-0.053110826,63.89776358
3.65,-0.044173159,63.89776358
3.651,-0.032043467,63.89776358
3.652,-0.017998562,63.89776358
3.653,-0.003315251,63.89776358
3.654,0.01009125,63.89776358
3.655,0.021901739,63.89776358
3.656,0.030201002,63.89776358
3.657,0.034669835,63.89776358
3.658,0.034989038,63.89776358
3.659,0.030520204,63.89776358
3.66,0.022540144,63.89776358
3.661,0.01136806,63.89776358
3.662,-0.001400037,63.89776358
3.663,-0.014806538,63.89776358
3.664,-0.027574634,63.89776358
3.665,-0.038427516,63.89776358
3.666,-0.046088373,63.89776358
3.667,-0.0495996,63.89776358
3.668,-0.048961195,63.89776358
3.669,-0.044173159,63.89776358
3.67,-0.035235492,63.89776358
3.671,-0.023425003,63.89776358
3.672,-0.010018501,63.89776358
3.673,0.003707202,63.89776358
3.674,0.016156096,63.89776358
3.675,0.026370573,63.89776358
3.676,0.032754621,63.89776358
3.677,0.034989038,63.89776358
3.678,0.032754621,63.89776358
3.679,0.026370573,63.89776358
3.68,0.016794501,63.89776358
3.681,0.004345607,63.89776358
3.682,-0.009380097,63.89776358
3.683,-0.023425003,63.89776358
3.684,-0.036512301,63.89776358
3.685,-0.047045981,63.89776358
3.686,-0.054068433,63.89776358
3.687,-0.056941255,63.89776358
3.688,-0.055026041,63.89776358
3.689,-0.048641993,63.89776358
3.69,-0.038746718,63.89776358
3.691,-0.025659419,63.89776358
3.692,-0.011295311,63.89776358
3.693,0.003388,63.89776358
3.694,0.016475298,63.89776358
3.695,0.02732818,63.89776358
3.696,0.034350633,63.89776358
3.697,0.037223455,63.89776358
3.698,0.03530824,63.89776358
3.699,0.029243394,63.89776358
3.7,0.01934812,63.89776358
3.701,0.007218428,63.89776358
3.702,-0.006826477,63.89776358
3.703,-0.021190586,63.89776358
3.704,-0.034277884,63.89776358
3.705,-0.045130766,63.89776358
3.706,-0.052153219,63.89776358
3.707,-0.055026041,63.89776358
3.708,-0.053110826,63.89776358
3.709,-0.047045981,63.89776358
3.71,-0.036831504,63.89776358
3.711,-0.024063407,63.89776358
3.712,-0.009699299,63.89776358
3.713,0.004984012,63.89776358
3.714,0.01807131,63.89776358
3.715,0.029243394,63.89776358
3.716,0.03658505,63.89776358
3.717,0.040096276,63.89776358
3.718,0.038819467,63.89776358
3.719,0.033393026,63.89776358
3.72,0.024136156,63.89776358
3.721,0.012006465,63.89776358
3.722,-0.001400037,63.89776358
3.723,-0.015764145,63.89776358
3.724,-0.028851443,63.89776358
3.725,-0.039704325,63.89776358
3.726,-0.047684385,63.89776358
3.727,-0.051514814,63.89776358
3.728,-0.050876409,63.89776358
3.729,-0.045449969,63.89776358
3.73,-0.036512301,63.89776358
3.731,-0.024701812,63.89776358
3.732,-0.011614513,63.89776358
3.733,0.00211119,63.89776358
3.734,0.013921679,63.89776358
3.735,0.023816954,63.89776358
3.736,0.030201002,63.89776358
3.737,0.032435419,63.89776358
3.738,0.030201002,63.89776358
3.739,0.024455358,63.89776358
3.74,0.015198489,63.89776358
3.741,0.004026404,63.89776358
3.742,-0.008422489,63.89776358
3.743,-0.020871383,63.89776358
3.744,-0.032043467,63.89776358
3.745,-0.040661932,63.89776358
3.746,-0.045769171,63.89776358
3.747,-0.046726778,63.89776358
3.748,-0.043534754,63.89776358
3.749,-0.036193099,63.89776358
3.75,-0.025340217,63.89776358
3.751,-0.011933716,63.89776358
3.752,0.002749595,63.89776358
3.753,0.017113703,63.89776358
3.754,0.030201002,63.89776358
3.755,0.040734681,63.89776358
3.756,0.047118729,63.89776358
3.757,0.049672348,63.89776358
3.758,0.047437932,63.89776358
3.759,0.041373086,63.89776358
3.76,0.031797014,63.89776358
3.761,0.019986525,63.89776358
3.762,0.007218428,63.89776358
3.763,-0.005230465,63.89776358
3.764,-0.01640255,63.89776358
3.765,-0.025021015,63.89776358
3.766,-0.029489848,63.89776358
3.767,-0.029809051,63.89776358
3.768,-0.025340217,63.89776358
3.769,-0.01640255,63.89776358
3.77,-0.003953656,63.89776358
3.771,0.011048857,63.89776358
3.772,0.027647382,63.89776358
3.773,0.04456511,63.89776358
3.774,0.059567623,63.89776358
3.775,0.072016517,63.89776358
3.776,0.080634982,63.89776358
3.777,0.084465411,63.89776358
3.778,0.083827006,63.89776358
3.779,0.078719767,63.89776358
3.78,0.070101302,63.89776358
3.781,0.058929218,63.89776358
3.782,0.046480324,63.89776358
3.783,0.034031431,63.89776358
3.784,0.023178549,63.89776358
3.785,0.015517691,63.89776358
3.786,0.01136806,63.89776358
3.787,0.011687262,63.89776358
3.788,0.015836893,63.89776358
3.789,0.024455358,63.89776358
3.79,0.03658505,63.89776358
3.791,0.05126836,63.89776358
3.792,0.067228481,63.89776358
3.793,0.083507803,63.89776358
3.794,0.097871912,63.89776358
3.795,0.109682401,63.89776358
3.796,0.117662461,63.89776358
3.797,0.12149289,63.89776358
3.798,0.120535283,63.89776358
3.799,0.115108842,63.89776358
3.8,0.105532769,63.89776358
3.801,0.093403078,63.89776358
3.802,0.079358172,63.89776358
3.803,0.064994064,63.89776358
3.804,0.052225968,63.89776358
3.805,0.042011491,63.89776358
3.806,0.03530824,63.89776358
3.807,0.032754621,63.89776358
3.808,0.034350633,63.89776358
3.809,0.039777074,63.89776358
3.81,0.048395539,63.89776358
3.811,0.058610016,63.89776358
3.812,0.070101302,63.89776358
3.813,0.080954184,63.89776358
3.814,0.090211054,63.89776358
3.815,0.096914304,63.89776358
3.816,0.100106329,63.89776358
3.817,0.098829519,63.89776358
3.818,0.093083876,63.89776358
3.819,0.083188601,63.89776358
3.82,0.0697821,63.89776358
3.821,0.054141182,63.89776358
3.822,0.037223455,63.89776358
3.823,0.020305727,63.89776358
3.824,0.005622416,63.89776358
3.825,-0.006507275,63.89776358
3.826,-0.014487335,63.89776358
3.827,-0.018636966,63.89776358
3.828,-0.017998562,63.89776358
3.829,-0.013210526,63.89776358
3.83,-0.005230465,63.89776358
3.831,0.005303214,63.89776358
3.832,0.016794501,63.89776358
3.833,0.02860499,63.89776358
3.834,0.038500264,63.89776358
3.835,0.04584192,63.89776358
3.836,0.049353146,63.89776358
3.837,0.048714741,63.89776358
3.838,0.043607503,63.89776358
3.839,0.034989038,63.89776358
3.84,0.022859346,63.89776358
3.841,0.00881444,63.89776358
3.842,-0.00586887,63.89776358
3.843,-0.020232978,63.89776358
3.844,-0.032681872,63.89776358
3.845,-0.042257944,63.89776358
3.846,-0.048003588,63.89776358
3.847,-0.049280397,63.89776358
3.848,-0.046407576,63.89776358
3.849,-0.039704325,63.89776358
3.85,-0.029809051,63.89776358
3.851,-0.017679359,63.89776358
3.852,-0.004592061,63.89776358
3.853,0.007856833,63.89776358
3.854,0.018709715,63.89776358
3.855,0.026370573,63.89776358
3.856,0.030201002,63.89776358
3.857,0.029881799,63.89776358
3.858,0.025412966,63.89776358
3.859,0.016794501,63.89776358
3.86,0.005622416,63.89776358
3.861,-0.008103287,63.89776358
3.862,-0.022467395,63.89776358
3.863,-0.035873896,63.89776358
3.864,-0.047684385,63.89776358
3.865,-0.055983648,63.89776358
3.866,-0.060133279,63.89776358
3.867,-0.059494874,63.89776358
3.868,-0.054706838,63.89776358
3.869,-0.045769171,63.89776358
3.87,-0.033958682,63.89776358
3.871,-0.020232978,63.89776358
3.872,-0.005549668,63.89776358
3.873,0.007856833,63.89776358
3.874,0.019667322,63.89776358
3.875,0.028285787,63.89776358
3.876,0.032754621,63.89776358
3.877,0.032435419,63.89776358
3.878,0.02732818,63.89776358
3.879,0.018390513,63.89776358
3.88,0.006580024,63.89776358
3.881,-0.007784085,63.89776358
3.882,-0.022786598,63.89776358
3.883,-0.037469908,63.89776358
3.884,-0.049918802,63.89776358
3.885,-0.05885647,63.89776358
3.886,-0.063963708,63.89776358
3.887,-0.064602113,63.89776358
3.888,-0.060771684,63.89776358
3.889,-0.053110826,63.89776358
3.89,-0.041938742,63.89776358
3.891,-0.028213039,63.89776358
3.892,-0.014168133,63.89776358
3.893,-0.000123227,63.89776358
3.894,0.01136806,63.89776358
3.895,0.020305727,63.89776358
3.896,0.025093763,63.89776358
3.897,0.025732168,63.89776358
3.898,0.021582537,63.89776358
3.899,0.013921679,63.89776358
3.9,0.003388,63.89776358
3.901,-0.009380097,63.89776358
3.902,-0.0231058,63.89776358
3.903,-0.035873896,63.89776358
3.904,-0.047045981,63.89776358
3.905,-0.055026041,63.89776358
3.906,-0.05885647,63.89776358
3.907,-0.058537267,63.89776358
3.908,-0.053430029,63.89776358
3.909,-0.044492361,63.89776358
3.91,-0.032681872,63.89776358
3.911,-0.018636966,63.89776358
3.912,-0.004592061,63.89776358
3.913,0.008176036,63.89776358
3.914,0.018709715,63.89776358
3.915,0.025732168,63.89776358
3.916,0.027966585,63.89776358
3.917,0.025412966,63.89776358
3.918,0.01807131,63.89776358
3.919,0.006899226,63.89776358
3.92,-0.008103287,63.89776358
3.921,-0.025340217,63.89776358
3.922,-0.043215552,63.89776358
3.923,-0.060771684,63.89776358
3.924,-0.076731804,63.89776358
3.925,-0.088861496,63.89776358
3.926,-0.097160758,63.89776358
3.927,-0.100352782,63.89776358
3.928,-0.09875677,63.89776358
3.929,-0.09205352,63.89776358
3.93,-0.08151984,63.89776358
3.931,-0.067474935,63.89776358
3.932,-0.050876409,63.89776358
3.933,-0.033320277,63.89776358
3.934,-0.015764145,63.89776358
3.935,0.00083438,63.89776358
3.936,0.016156096,63.89776358
3.937,0.030839406,63.89776358
3.938,0.044884312,63.89776358
3.939,0.059886825,63.89776358
3.94,0.076804553,63.89776358
3.941,0.096914304,63.89776358
3.942,0.12149289,63.89776358
3.943,0.152455523,63.89776358
3.944,0.190440609,63.89776358
3.945,0.236086553,63.89776358
3.946,0.289393355,63.89776358
3.947,0.34972261,63.89776358
3.948,0.415159103,63.89776358
3.949,0.484745228,63.89776358
3.95,0.556246567,63.89776358
3.951,0.628067108,63.89776358
3.952,0.69733403,63.89776358
3.953,0.761493713,63.89776358
3.954,0.817354135,63.89776358
3.955,0.862361674,63.89776358
3.956,0.89364351,63.89776358
3.957,0.910561237,63.89776358
3.958,0.911838047,63.89776358
3.959,0.898431546,63.89776358
3.96,0.870980139,63.89776358
3.961,0.831079838,63.89776358
3.962,0.78096506,63.89776358
3.963,0.722870222,63.89776358
3.964,0.659668146,63.89776358
3.965,0.592954843,63.89776358
3.966,0.525603136,63.89776358
3.967,0.459209035,63.89776358
3.968,0.395368554,64.3776824
3.969,0.335677704,64.3776824
3.97,0.280455688,64.3776824
3.971,0.230021708,64.3776824
3.972,0.184375764,64.3776824
3.973,0.142879451,64.3776824
3.974,0.105213567,64.3776824
3.975,0.070420505,64.3776824
3.976,0.037861859,64.3776824
3.977,0.007218428,64.3776824
3.978,-0.020552181,64.3776824
3.979,-0.046407576,64.3776824
3.98,-0.069390149,64.3776824
3.981,-0.088861496,64.3776824
3.982,-0.104502414,64.3776824
3.983,-0.115355295,64.3776824
3.984,-0.121420141,64.3776824
3.985,-0.122058546,64.3776824
3.986,-0.116951307,64.3776824
3.987,-0.10673683,64.3776824
3.988,-0.09205352,64.3776824
3.989,-0.073858983,64.3776824
3.99,-0.053430029,64.3776824
3.991,-0.032043467,64.3776824
3.992,-0.011295311,64.3776824
3.993,0.007218428,64.3776824
3.994,0.022220942,64.3776824
3.995,0.033073823,64.3776824
3.996,0.038819467,64.3776824
3.997,0.038819467,64.3776824
3.998,0.033712228,64.3776824
3.999,0.023816954,64.3776824
4,0.010729655,64.3776824
4.001,-0.004272858,64.3776824
4.002,-0.020232978,64.3776824
4.003,-0.035235492,64.3776824
4.004,-0.04832279,64.3776824
4.005,-0.057898862,64.3776824
4.006,-0.063644506,64.3776824
4.007,-0.064921315,64.3776824
4.008,-0.061729291,64.3776824
4.009,-0.054706838,64.3776824
4.01,-0.044492361,64.3776824
4.011,-0.03236267,64.3776824
4.012,-0.019594574,64.3776824
4.013,-0.007464882,64.3776824
4.014,0.002430392,64.3776824
4.015,0.009452845,64.3776824
4.016,0.012964072,64.3776824
4.017,0.012006465,64.3776824
4.018,0.007218428,64.3776824
4.019,-0.001400037,64.3776824
4.02,-0.012252918,64.3776824
4.021,-0.024701812,64.3776824
4.022,-0.037150706,64.3776824
4.023,-0.048641993,64.3776824
4.024,-0.05757966,64.3776824
4.025,-0.063325303,64.3776824
4.026,-0.064921315,64.3776824
4.027,-0.062367696,64.3776824
4.028,-0.055664446,64.3776824
4.029,-0.045769171,64.3776824
4.03,-0.033320277,64.3776824
4.031,-0.019275371,64.3776824
4.032,-0.005230465,64.3776824
4.033,0.007218428,64.3776824
4.034,0.017432905,64.3776824
4.035,0.024136156,64.3776824
4.036,0.026689775,64.3776824
4.037,0.025093763,64.3776824
4.038,0.01934812,64.3776824
4.039,0.01009125,64.3776824
4.04,-0.001080834,64.3776824
4.041,-0.014487335,64.3776824
4.042,-0.027574634,64.3776824
4.043,-0.039385123,64.3776824
4.044,-0.048961195,64.3776824
4.045,-0.055026041,64.3776824
4.046,-0.056622053,64.3776824
4.047,-0.054068433,64.3776824
4.048,-0.047365183,64.3776824
4.049,-0.037150706,64.3776824
4.05,-0.02438261,64.3776824
4.051,-0.010018501,64.3776824
4.052,0.004026404,64.3776824
4.053,0.016794501,64.3776824
4.054,0.027008978,64.3776824
4.055,0.033712228,64.3776824
4.056,0.03658505,64.3776824
4.057,0.034669835,64.3776824
4.058,0.029243394,64.3776824
4.059,0.020305727,64.3776824
4.06,0.009133643,64.3776824
4.061,-0.002676846,64.3776824
4.062,-0.01512574,64.3776824
4.063,-0.025978622,64.3776824
4.064,-0.034277884,64.3776824
4.065,-0.038746718,64.3776824
4.066,-0.03906592,64.3776824
4.067,-0.035235492,64.3776824
4.068,-0.026936229,64.3776824
4.069,-0.015444942,64.3776824
4.07,-0.002038441,64.3776824
4.071,0.012325667,64.3776824
4.072,0.026370573,64.3776824
4.073,0.038819467,64.3776824
4.074,0.048395539,64.3776824
4.075,0.05382198,64.3776824
4.076,0.055098789,64.3776824
4.077,0.051587563,64.3776824
4.078,0.043926705,64.3776824
4.079,0.032435419,64.3776824
4.08,0.018709715,64.3776824
4.081,0.004026404,64.3776824
4.082,-0.010976109,64.3776824
4.083,-0.024063407,64.3776824
4.084,-0.034277884,64.3776824
4.085,-0.04034273,64.3776824
4.086,-0.041938742,64.3776824
4.087,-0.038746718,64.3776824
4.088,-0.031405063,64.3776824
4.089,-0.020232978,64.3776824
4.09,-0.006188073,64.3776824
4.091,0.008495238,64.3776824
4.092,0.023816954,64.3776824
4.093,0.037542657,64.3776824
4.094,0.048714741,64.3776824
4.095,0.056375599,64.3776824
4.096,0.059886825,64.3776824
4.097,0.058610016,64.3776824
4.098,0.053183575,64.3776824
4.099,0.043926705,64.3776824
4.1,0.032116216,64.3776824
4.101,0.018709715,64.3776824
4.102,0.005622416,64.3776824
4.103,-0.006188073,64.3776824
4.104,-0.015444942,64.3776824
4.105,-0.020552181,64.3776824
4.106,-0.02182899,64.3776824
4.107,-0.018317764,64.3776824
4.108,-0.010976109,64.3776824
4.109,-0.000123227,64.3776824
4.11,0.012644869,64.3776824
4.111,0.027008978,64.3776824
4.112,0.041053883,64.3776824
4.113,0.05382198,64.3776824
4.114,0.063398052,64.3776824
4.115,0.069462898,64.3776824
4.116,0.07105891,64.3776824
4.117,0.06850529,64.3776824
4.118,0.06180204,64.3776824
4.119,0.051906765,64.3776824
4.12,0.039457871,64.3776824
4.121,0.02605137,64.3776824
4.122,0.012964072,64.3776824
4.123,0.001472785,64.3776824
4.124,-0.00714568,64.3776824
4.125,-0.012252918,64.3776824
4.126,-0.012572121,64.3776824
4.127,-0.008741692,64.3776824
4.128,-0.001080834,64.3776824
4.129,0.009452845,64.3776824
4.13,0.022540144,64.3776824
4.131,0.03658505,64.3776824
4.132,0.050310753,64.3776824
4.133,0.062440445,64.3776824
4.134,0.071378112,64.3776824
4.135,0.076804553,64.3776824
4.136,0.07776216,64.3776824
4.137,0.074250934,64.3776824
4.138,0.066909278,64.3776824
4.139,0.056056397,64.3776824
4.14,0.0432883,64.3776824
4.141,0.029562597,64.3776824
4.142,0.016475298,64.3776824
4.143,0.005622416,64.3776824
4.144,-0.002357644,64.3776824
4.145,-0.006188073,64.3776824
4.146,-0.00586887,64.3776824
4.147,-0.000442429,64.3776824
4.148,0.008495238,64.3776824
4.149,0.021582537,64.3776824
4.15,0.03658505,64.3776824
4.151,0.052864372,64.3776824
4.152,0.06850529,64.3776824
4.153,0.082230994,64.3776824
4.154,0.093083876,64.3776824
4.155,0.099787126,64.3776824
4.156,0.102021543,64.3776824
4.157,0.099787126,64.3776824
4.158,0.093403078,64.3776824
4.159,0.084146208,64.3776824
4.16,0.072654922,64.3776824
4.161,0.06052523,64.3776824
4.162,0.048714741,64.3776824
4.163,0.038500264,64.3776824
4.164,0.031477811,64.3776824
4.165,0.028285787,64.3776824
4.166,0.029881799,64.3776824
4.167,0.035627443,64.3776824
4.168,0.045522717,64.3776824
4.169,0.058610016,64.3776824
4.17,0.073931731,64.3776824
4.171,0.090211054,64.3776824
4.172,0.105851972,64.3776824
4.173,0.119577675,64.3776824
4.174,0.129792152,64.3776824
4.175,0.135856998,64.3776824
4.176,0.137133808,64.3776824
4.177,0.133941784,64.3776824
4.178,0.126600128,64.3776824
4.179,0.116066449,64.3776824
4.18,0.103617555,64.3776824
4.181,0.090530256,64.3776824
4.182,0.078081363,64.3776824
4.183,0.067547683,64.3776824
4.184,0.060206028,64.3776824
4.185,0.057014004,64.3776824
4.186,0.058290813,64.3776824
4.187,0.064036457,64.3776824
4.188,0.073612529,64.3776824
4.189,0.086699828,64.3776824
4.19,0.102021543,64.3776824
4.191,0.118300866,64.3776824
4.192,0.134580188,64.3776824
4.193,0.148625094,64.3776824
4.194,0.159797178,64.3776824
4.195,0.166819631,64.3776824
4.196,0.169373251,64.3776824
4.197,0.167458036,64.3776824
4.198,0.16139319,64.3776824
4.199,0.152136321,64.3776824
4.2,0.140325832,64.3776824
4.201,0.127557735,64.3776824
4.202,0.115428044,64.3776824
4.203,0.104894365,64.3776824
4.204,0.097233507,64.3776824
4.205,0.09372228,64.3776824
4.206,0.094360685,64.3776824
4.207,0.099148721,64.3776824
4.208,0.107447984,64.3776824
4.209,0.11893927,64.3776824
4.21,0.132026569,64.3776824
4.211,0.14543307,64.3776824
4.212,0.157881964,64.3776824
4.213,0.168415643,64.3776824
4.214,0.175757299,64.3776824
4.215,0.179268525,64.3776824
4.216,0.178310918,64.3776824
4.217,0.172884477,64.3776824
4.218,0.163627607,64.3776824
4.219,0.151178713,64.3776824
4.22,0.136495403,64.3776824
4.221,0.121173687,64.3776824
4.222,0.106171174,64.3776824
4.223,0.092764673,64.3776824
4.224,0.082869399,64.3776824
4.225,0.076804553,64.3776824
4.226,0.074889338,64.3776824
4.227,0.077442958,64.3776824
4.228,0.083507803,64.3776824
4.229,0.092126268,64.3776824
4.23,0.102340745,64.3776824
4.231,0.112555222,64.3776824
4.232,0.121812092,64.3776824
4.233,0.128515343,64.3776824
4.234,0.131388164,64.3776824
4.235,0.130430557,64.3776824
4.236,0.124684914,64.3776824
4.237,0.114470437,64.3776824
4.238,0.100106329,64.3776824
4.239,0.082869399,64.3776824
4.24,0.063717254,64.3776824
4.241,0.044245908,64.3776824
4.242,0.025732168,64.3776824
4.243,0.009772048,64.3776824
4.244,-0.002676846,64.3776824
4.245,-0.010976109,64.3776824
4.246,-0.01512574,64.3776824
4.247,-0.014806538,64.3776824
4.248,-0.010656906,64.3776824
4.249,-0.003315251,64.3776824
4.25,0.005941619,64.3776824
4.251,0.015517691,64.3776824
4.252,0.025093763,64.3776824
4.253,0.032435419,64.3776824
4.254,0.03658505,64.3776824
4.255,0.03658505,64.3776824
4.256,0.032116216,64.3776824
4.257,0.023497751,64.3776824
4.258,0.011048857,64.3776824
4.259,-0.003953656,64.3776824
4.26,-0.020871383,64.3776824
4.261,-0.038108313,64.3776824
4.262,-0.054387636,64.3776824
4.263,-0.068113339,64.3776824
4.264,-0.078008614,64.3776824
4.265,-0.083754257,64.3776824
4.266,-0.084711864,64.3776824
4.267,-0.081200638,64.3776824
4.268,-0.073858983,64.3776824
4.269,-0.063006101,64.3776824
4.27,-0.050557207,64.3776824
4.271,-0.037789111,64.3776824
4.272,-0.025659419,64.3776824
4.273,-0.015764145,64.3776824
4.274,-0.009699299,64.3776824
4.275,-0.007784085,64.3776824
4.276,-0.010018501,64.3776824
4.277,-0.016721752,64.3776824
4.278,-0.026936229,64.3776824
4.279,-0.040023528,64.3776824
4.28,-0.054706838,64.3776824
4.281,-0.070347756,64.3776824
4.282,-0.084711864,64.3776824
4.283,-0.096841556,64.3776824
4.284,-0.105460021,64.3776824
4.285,-0.109928855,64.3776824
4.286,-0.109928855,64.3776824
4.287,-0.105460021,64.3776824
4.288,-0.097160758,64.3776824
4.289,-0.085669472,64.3776824
4.29,-0.072582173,64.3776824
4.291,-0.058537267,64.3776824
4.292,-0.045769171,64.3776824
4.293,-0.034916289,64.3776824
4.294,-0.027255431,64.3776824
4.295,-0.023744205,64.3776824
4.296,-0.025021015,64.3776824
4.297,-0.030766658,64.3776824
4.298,-0.040023528,64.3776824
4.299,-0.052153219,64.3776824
4.3,-0.06555972,64.3776824
4.301,-0.079285424,64.3776824
4.302,-0.09205352,64.3776824
4.303,-0.101948794,64.3776824
4.304,-0.108652045,64.3776824
4.305,-0.110886462,64.3776824
4.306,-0.108971247,64.3776824
4.307,-0.102906402,64.3776824
4.308,-0.093011127,64.3776824
4.309,-0.080562233,64.3776824
4.31,-0.066198125,64.3776824
4.311,-0.051514814,64.3776824
4.312,-0.037469908,64.3776824
4.313,-0.026297824,64.3776824
4.314,-0.018317764,64.3776824
4.315,-0.014806538,64.3776824
4.316,-0.016083347,64.3776824
4.317,-0.02182899,64.3776824
4.318,-0.030766658,64.3776824
4.319,-0.042896349,64.3776824
4.32,-0.05630285,64.3776824
4.321,-0.070347756,64.3776824
4.322,-0.083115852,64.3776824
4.323,-0.093968734,64.3776824
4.324,-0.101629592,64.3776824
4.325,-0.105140818,64.3776824
4.326,-0.104502414,64.3776824
4.327,-0.099395175,64.3776824
4.328,-0.09077671,64.3776824
4.329,-0.079285424,64.3776824
4.33,-0.066517327,64.3776824
4.331,-0.053749231,64.3776824
4.332,-0.041938742,64.3776824
4.333,-0.032043467,64.3776824
4.334,-0.025978622,64.3776824
4.335,-0.023425003,64.3776824
4.336,-0.025659419,64.3776824
4.337,-0.031405063,64.3776824
4.338,-0.040661932,64.3776824
4.339,-0.052153219,64.3776824
4.34,-0.064602113,64.3776824
4.341,-0.077051007,64.3776824
4.342,-0.087903888,64.3776824
4.343,-0.096203151,64.3776824
4.344,-0.100991187,64.3776824
4.345,-0.101629592,64.3776824
4.346,-0.097479961,64.3776824
4.347,-0.089819103,64.3776824
4.348,-0.078327816,64.3776824
4.349,-0.064602113,64.3776824
4.35,-0.049918802,64.3776824
4.351,-0.035235492,64.3776824
4.352,-0.022148193,64.3776824
4.353,-0.011933716,64.3776824
4.354,-0.005549668,64.3776824
4.355,-0.003315251,64.3776824
4.356,-0.00586887,64.3776824
4.357,-0.012572121,64.3776824
4.358,-0.022786598,64.3776824
4.359,-0.035554694,64.3776824
4.36,-0.050238005,64.3776824
4.361,-0.064921315,64.3776824
4.362,-0.078008614,64.3776824
4.363,-0.088542293,64.3776824
4.364,-0.095245544,64.3776824
4.365,-0.096841556,64.3776824
4.366,-0.093968734,64.3776824
4.367,-0.086627079,64.3776824
4.368,-0.075774197,64.3776824
4.369,-0.062367696,64.3776824
4.37,-0.047684385,64.3776824
4.371,-0.033320277,64.3776824
4.372,-0.020232978,64.3776824
4.373,-0.010018501,64.3776824
4.374,-0.003634453,64.3776824
4.375,-0.001719239,64.3776824
4.376,-0.004272858,64.3776824
4.377,-0.010656906,64.3776824
4.378,-0.020232978,64.3776824
4.379,-0.03236267,64.3776824
4.38,-0.045449969,64.3776824
4.381,-0.058537267,64.3776824
4.382,-0.070347756,64.3776824
4.383,-0.079285424,64.3776824
4.384,-0.085031067,64.3776824
4.385,-0.086307876,64.3776824
4.386,-0.083115852,64.3776824
4.387,-0.075774197,64.3776824
4.388,-0.064921315,64.3776824
4.389,-0.051514814,64.3776824
4.39,-0.036831504,64.3776824
4.391,-0.022467395,64.3776824
4.392,-0.009699299,64.3776824
4.393,0.000515178,64.3776824
4.394,0.006899226,64.3776824
4.395,0.00881444,64.3776824
4.396,0.006899226,64.3776824
4.397,0.000195976,64.3776824
4.398,-0.010018501,64.3776824
4.399,-0.0231058,64.3776824
4.4,-0.037469908,64.3776824
4.401,-0.051514814,64.3776824
4.402,-0.06428291,64.3776824
4.403,-0.074178185,64.3776824
4.404,-0.080243031,64.3776824
4.405,-0.082158245,64.3776824
4.406,-0.079285424,64.3776824
4.407,-0.072262971,64.3776824
4.408,-0.061729291,64.3776824
4.409,-0.048961195,64.3776824
4.41,-0.035235492,64.3776824
4.411,-0.02182899,64.3776824
4.412,-0.009699299,64.3776824
4.413,-0.000442429,64.3776824
4.414,0.005303214,64.3776824
4.415,0.006899226,64.3776824
4.416,0.004026404,64.3776824
4.417,-0.002676846,64.3776824
4.418,-0.012891323,64.3776824
4.419,-0.025021015,64.3776824
4.42,-0.038427516,64.3776824
4.421,-0.050876409,64.3776824
4.422,-0.061729291,64.3776824
4.423,-0.069390149,64.3776824
4.424,-0.07353978,64.3776824
4.425,-0.073220578,64.3776824
4.426,-0.068751744,64.3776824
4.427,-0.060771684,64.3776824
4.428,-0.049280397,64.3776824
4.429,-0.035873896,64.3776824
4.43,-0.021509788,64.3776824
4.431,-0.007464882,64.3776824
4.432,0.004345607,64.3776824
4.433,0.013283274,64.3776824
4.434,0.018390513,64.3776824
4.435,0.019028917,64.3776824
4.436,0.015198489,64.3776824
4.437,0.007218428,64.3776824
4.438,-0.003634453,64.3776824
4.439,-0.017360157,64.3776824
4.44,-0.031724265,64.3776824
4.441,-0.045769171,64.3776824
4.442,-0.058218065,64.3776824
4.443,-0.067474935,64.3776824
4.444,-0.072582173,64.3776824
4.445,-0.073220578,64.3776824
4.446,-0.069070947,64.3776824
4.447,-0.061090886,64.3776824
4.448,-0.0495996,64.3776824
4.449,-0.036193099,64.3776824
4.45,-0.022148193,64.3776824
4.451,-0.008422489,64.3776824
4.452,0.003388,64.3776824
4.453,0.011687262,64.3776824
4.454,0.016475298,64.3776824
4.455,0.016794501,64.3776824
4.456,0.012644869,64.3776824
4.457,0.004664809,64.3776824
4.458,-0.006826477,64.3776824
4.459,-0.020552181,64.3776824
4.46,-0.035235492,64.3776824
4.461,-0.0495996,64.3776824
4.462,-0.062048494,64.3776824
4.463,-0.071624566,64.3776824
4.464,-0.077051007,64.3776824
4.465,-0.078008614,64.3776824
4.466,-0.074497387,64.3776824
4.467,-0.06683653,64.3776824
4.468,-0.055664446,64.3776824
4.469,-0.042257944,64.3776824
4.47,-0.027893836,64.3776824
4.471,-0.01384893,64.3776824
4.472,-0.001400037,64.3776824
4.473,0.007537631,64.3776824
4.474,0.012964072,64.3776824
4.475,0.013921679,64.3776824
4.476,0.010410453,64.3776824
4.477,0.003068797,64.3776824
4.478,-0.007464882,64.3776824
4.479,-0.020232978,64.3776824
4.48,-0.03363948,64.3776824
4.481,-0.046726778,64.3776824
4.482,-0.05757966,64.3776824
4.483,-0.064921315,64.3776824
4.484,-0.068432542,64.3776824
4.485,-0.067794137,64.3776824
4.486,-0.062367696,64.3776824
4.487,-0.053430029,64.3776824
4.488,-0.04161954,64.3776824
4.489,-0.027893836,64.3776824
4.49,-0.013529728,64.3776824
4.491,0.000195976,64.3776824
4.492,0.011687262,64.3776824
4.493,0.020624929,64.3776824
4.494,0.025093763,64.3776824
4.495,0.025412966,64.3776824
4.496,0.021263334,64.3776824
4.497,0.012644869,64.3776824
4.498,0.001153583,64.3776824
4.499,-0.012891323,64.3776824
4.5,-0.027574634,64.3776824
4.501,-0.04161954,64.3776824
4.502,-0.053430029,64.3776824
4.503,-0.062048494,64.3776824
4.504,-0.06683653,64.3776824
4.505,-0.067155732,64.3776824
4.506,-0.062686898,64.3776824
4.507,-0.054387636,64.3776824
4.508,-0.042577147,64.3776824
4.509,-0.028851443,64.3776824
4.51,-0.014168133,64.3776824
4.511,0.000195976,64.3776824
4.512,0.012006465,64.3776824
4.513,0.020944132,64.3776824
4.514,0.026370573,64.3776824
4.515,0.02732818,64.3776824
4.516,0.024455358,64.3776824
4.517,0.017113703,64.3776824
4.518,0.007218428,64.3776824
4.519,-0.004911263,64.3776824
4.52,-0.018317764,64.3776824
4.521,-0.03108586,64.3776824
4.522,-0.041938742,64.3776824
4.523,-0.049918802,64.3776824
4.524,-0.054068433,64.3776824
4.525,-0.053749231,64.3776824
4.526,-0.048961195,64.3776824
4.527,-0.040661932,64.3776824
4.528,-0.029489848,64.3776824
4.529,-0.01640255,64.3776824
4.53,-0.002996049,64.3776824
4.531,0.009133643,64.3776824
4.532,0.019986525,64.3776824
4.533,0.027647382,64.3776824
4.534,0.031158609,64.3776824
4.535,0.030839406,64.3776824
4.536,0.025732168,64.3776824
4.537,0.017113703,64.3776824
4.538,0.005622416,64.3776824
4.539,-0.008103287,64.3776824
4.54,-0.022148193,64.3776824
4.541,-0.035554694,64.3776824
4.542,-0.046407576,64.3776824
4.543,-0.054068433,64.3776824
4.544,-0.057898862,64.3776824
4.545,-0.056941255,64.3776824
4.546,-0.051834017,64.3776824
4.547,-0.042896349,64.3776824
4.548,-0.030766658,64.3776824
4.549,-0.017040954,64.3776824
4.55,-0.002996049,64.3776824
4.551,0.009772048,64.3776824
4.552,0.020305727,64.3776824
4.553,0.02732818,64.3776824
4.554,0.030520204,64.3776824
4.555,0.028924192,64.3776824
4.556,0.023497751,64.3776824
4.557,0.014560084,64.3776824
4.558,0.003068797,64.3776824
4.559,-0.010656906,64.3776824
4.56,-0.025340217,64.3776824
4.561,-0.038746718,64.3776824
4.562,-0.050238005,64.3776824
4.563,-0.058218065,64.3776824
4.564,-0.062048494,64.3776824
4.565,-0.061410089,64.3776824
4.566,-0.05630285,64.3776824
4.567,-0.047365183,64.3776824
4.568,-0.035235492,64.3776824
4.569,-0.021190586,64.3776824
4.57,-0.006507275,64.3776824
4.571,0.007218428,64.3776824
4.572,0.018390513,64.3776824
4.573,0.026370573,64.3776824
4.574,0.030201002,64.3776824
4.575,0.029562597,64.3776824
4.576,0.024455358,64.3776824
4.577,0.015517691,64.3776824
4.578,0.004026404,64.3776824
4.579,-0.009699299,64.3776824
4.58,-0.024063407,64.3776824
4.581,-0.037469908,64.3776824
4.582,-0.048961195,64.3776824
4.583,-0.056941255,64.3776824
4.584,-0.061410089,64.3776824
4.585,-0.061410089,64.3776824
4.586,-0.057260458,64.3776824
4.587,-0.048961195,64.3776824
4.588,-0.037789111,64.3776824
4.589,-0.024701812,64.3776824
4.59,-0.010976109,64.3776824
4.591,0.001472785,64.3776824
4.592,0.01136806,64.3776824
4.593,0.018390513,64.3776824
4.594,0.021263334,64.3776824
4.595,0.019986525,64.3776824
4.596,0.014560084,64.3776824
4.597,0.005941619,64.3776824
4.598,-0.005549668,64.3776824
4.599,-0.018956169,64.3776824
4.6,-0.032681872,64.3776824
4.601,-0.045130766,64.3776824
4.602,-0.055345243,64.3776824
4.603,-0.061729291,64.3776824
4.604,-0.063963708,64.3776824
4.605,-0.062048494,64.3776824
4.606,-0.055345243,64.3776824
4.607,-0.045449969,64.3776824
4.608,-0.03236267,64.3776824
4.609,-0.017998562,64.3776824
4.61,-0.003315251,64.3776824
4.611,0.01009125,64.3776824
4.612,0.021263334,64.3776824
4.613,0.028924192,64.3776824
4.614,0.032116216,64.3776824
4.615,0.030839406,64.3776824
4.616,0.025093763,64.3776824
4.617,0.015517691,64.3776824
4.618,0.003388,64.3776824
4.619,-0.010976109,64.3776824
4.62,-0.025659419,64.3776824
4.621,-0.03906592,64.3776824
4.622,-0.050557207,64.3776824
4.623,-0.058537267,64.3776824
4.624,-0.062048494,64.3776824
4.625,-0.061410089,64.3776824
4.626,-0.05630285,64.3776824
4.627,-0.047365183,64.3776824
4.628,-0.035235492,64.3776824
4.629,-0.02182899,64.3776824
4.63,-0.007784085,64.3776824
4.631,0.005303214,64.3776824
4.632,0.015836893,64.3776824
4.633,0.023178549,64.3776824
4.634,0.026370573,64.3776824
4.635,0.025732168,64.3776824
4.636,0.020944132,64.3776824
4.637,0.012325667,64.3776824
4.638,0.001472785,64.3776824
4.639,-0.011295311,64.3776824
4.64,-0.02438261,64.3776824
4.641,-0.036512301,64.3776824
4.642,-0.046088373,64.3776824
4.643,-0.052791624,64.3776824
4.644,-0.055345243,64.3776824
4.645,-0.053749231,64.3776824
4.646,-0.048003588,64.3776824
4.647,-0.038746718,64.3776824
4.648,-0.026936229,64.3776824
4.649,-0.013529728,64.3776824
4.65,-0.000442429,64.3776824
4.651,0.011048857,64.3776824
4.652,0.019986525,64.3776824
4.653,0.025732168,64.3776824
4.654,0.027008978,64.3776824
4.655,0.024455358,64.3776824
4.656,0.01807131,64.3776824
4.657,0.00881444,64.3776824
4.658,-0.002676846,64.3776824
4.659,-0.015764145,64.3776824
4.66,-0.028532241,64.3776824
4.661,-0.039704325,64.3776824
4.662,-0.048003588,64.3776824
4.663,-0.052472421,64.3776824
4.664,-0.052153219,64.3776824
4.665,-0.046726778,64.3776824
4.666,-0.037150706,64.3776824
4.667,-0.023744205,64.3776824
4.668,-0.007784085,64.3776824
