sec,mV,BPM
0.075,-0.227710798,0
0.076,-0.225476583,0
0.077,-0.219731458,0
0.078,-0.210794597,0
0.079,-0.200261868,0
0.08,-0.188452445,0
0.081,-0.177281369,0
0.082,-0.167067813,0
0.083,-0.159088473,0
0.084,-0.154300869,0
0.085,-0.152385827,0
0.086,-0.154300869,0
0.087,-0.159088473,0
0.088,-0.166429466,0
0.089,-0.175685501,0
0.09,-0.185260709,0
0.091,-0.194835917,0
0.092,-0.202815257,0
0.093,-0.208879555,0
0.094,-0.211752118,0
0.095,-0.211432944,0
0.096,-0.207602861,0
0.097,-0.200581042,0
0.098,-0.191005834,0
0.099,-0.179834757,0
0.1,-0.168344508,0
0.101,-0.157492605,0
0.102,-0.148555744,0
0.103,-0.141853098,0
0.104,-0.138661362,0
0.105,-0.138980536,0
0.106,-0.142491446,0
0.107,-0.149513265,0
0.108,-0.158769299,0
0.109,-0.169621202,0
0.11,-0.180792278,0
0.111,-0.191325007,0
0.112,-0.199942695,0
0.113,-0.206326167,0
0.114,-0.209517903,0
0.115,-0.209198729,0
0.116,-0.205049472,0
0.117,-0.197708479,0
0.118,-0.188133271,0
0.119,-0.176643021,0
0.12,-0.164833598,0
0.121,-0.153981695,0
0.122,-0.144725661,0
0.123,-0.138023015,0
0.124,-0.134831279,0
0.125,-0.135150453,0
0.126,-0.138980536,0
0.127,-0.146002355,0
0.128,-0.15525839,0
0.129,-0.166110292,0
0.13,-0.177281369,0
0.131,-0.187494924,0
0.132,-0.196112611,0
0.133,-0.201857736,0
0.134,-0.204730299,0
0.135,-0.203772778,0
0.136,-0.199623521,0
0.137,-0.191963354,0
0.138,-0.182068973,0
0.139,-0.170897896,0
0.14,-0.159088473,0
0.141,-0.148236571,0
0.142,-0.139618883,0
0.143,-0.133235411,0
0.144,-0.130682022,0
0.145,-0.131639543,0
0.146,-0.136107974,0
0.147,-0.143448966,0
0.148,-0.153024175,0
0.149,-0.163876077,0
0.15,-0.17472798,0
0.151,-0.184622361,0
0.152,-0.192920875,0
0.153,-0.198666,0
0.154,-0.200900215,0
0.155,-0.199623521,0
0.156,-0.19515509,0
0.157,-0.187814098,0
0.158,-0.178238889,0
0.159,-0.16770616,0
0.16,-0.157173431,0
0.161,-0.147917397,0
0.162,-0.14025723,0
0.163,-0.135469626,0
0.164,-0.134192932,0
0.165,-0.136427147,0
0.166,-0.141853098,0
0.167,-0.150151612,0
0.168,-0.160684341,0
0.169,-0.171855417,0
0.17,-0.183026493,0
0.171,-0.193240049,0
0.172,-0.200900215,0
0.173,-0.206006993,0
0.174,-0.207283687,0
0.175,-0.205368646,0
0.176,-0.199942695,0
0.177,-0.191644181,0
0.178,-0.181430625,0
0.179,-0.170578723,0
0.18,-0.15972682,0
0.181,-0.150151612,0
0.182,-0.142810619,0
0.183,-0.138342189,0
0.184,-0.137384668,0
0.185,-0.139938057,0
0.186,-0.145683182,0
0.187,-0.154300869,0
0.188,-0.164514424,0
0.189,-0.175366327,0
0.19,-0.18621823,0
0.191,-0.195474264,0
0.192,-0.202496083,0
0.193,-0.206964514,0
0.194,-0.207922035,0
0.195,-0.205049472,0
0.196,-0.199304347,0
0.197,-0.190367486,0
0.198,-0.180153931,0
0.199,-0.168982855,0
0.2,-0.158130952,0
0.201,-0.149194091,0
0.202,-0.142810619,0
0.203,-0.13929971,0
0.204,-0.139618883,0
0.205,-0.143129793,0
0.206,-0.149832439,0
0.207,-0.159088473,0
0.208,-0.170259549,0
0.209,-0.181430625,0
0.21,-0.192601702,0
0.211,-0.20217691,0
0.212,-0.209517903,0
0.213,-0.21366716,0
0.214,-0.21462468,0
0.215,-0.211752118,0
0.216,-0.205687819,0
0.217,-0.197070132,0
0.218,-0.186856577,0
0.219,-0.176004674,0
0.22,-0.165791119,0
0.221,-0.156854258,0
0.222,-0.150789959,0
0.223,-0.147598223,0
0.224,-0.147917397,0
0.225,-0.152066654,0
0.226,-0.158769299,0
0.227,-0.168025334,0
0.228,-0.178877237,0
0.229,-0.189729139,0
0.23,-0.199623521,0
0.231,-0.208241208,0
0.232,-0.213986333,0
0.233,-0.216539722,0
0.234,-0.215901375,0
0.235,-0.211752118,0
0.236,-0.204411125,0
0.237,-0.194835917,0
0.238,-0.183984014,0
0.239,-0.172812938,0
0.24,-0.162599383,0
0.241,-0.154300869,0
0.242,-0.148555744,0
0.243,-0.145683182,0
0.244,-0.146640703,0
0.245,-0.151109133,0
0.246,-0.158450126,0
0.247,-0.16770616,0
0.248,-0.178238889,0
0.249,-0.189090792,0
0.25,-0.198666,0
0.251,-0.20664534,0
0.252,-0.212071291,0
0.253,-0.213986333,0
0.254,-0.212390465,0
0.255,-0.207283687,0
0.256,-0.199304347,0
0.257,-0.189090792,0
0.258,-0.177919716,0
0.259,-0.16674864,0
0.26,-0.156535084,0
0.261,-0.148555744,0
0.262,-0.143129793,0
0.263,-0.141533925,0
0.264,-0.143448966,0
0.265,-0.148555744,0
0.266,-0.156854258,0
0.267,-0.16674864,0
0.268,-0.178238889,0
0.269,-0.189409966,0
0.27,-0.199304347,0
0.271,-0.207283687,0
0.272,-0.212390465,0
0.273,-0.214305507,0
0.274,-0.212390465,0
0.275,-0.207283687,0
0.276,-0.198985174,0
0.277,-0.188452445,0
0.278,-0.177281369,0
0.279,-0.166110292,0
0.28,-0.156215911,0
0.281,-0.148555744,0
0.282,-0.14376814,0
0.283,-0.142491446,0
0.284,-0.144406487,0
0.285,-0.149832439,0
0.286,-0.158130952,0
0.287,-0.168025334,0
0.288,-0.178877237,0
0.289,-0.189409966,0
0.29,-0.198666,0
0.291,-0.206006993,0
0.292,-0.210475423,0
0.293,-0.211752118,0
0.294,-0.209198729,0
0.295,-0.203453604,0
0.296,-0.19515509,0
0.297,-0.184622361,0
0.298,-0.173770459,0
0.299,-0.162918556,0
0.3,-0.153662522,0
0.301,-0.146640703,0
0.302,-0.142491446,0
0.303,-0.142172272,0
0.304,-0.145044834,0
0.305,-0.151109133,0
0.306,-0.15972682,0
0.307,-0.170259549,0
0.308,-0.181111452,0
0.309,-0.191644181,0
0.31,-0.200900215,0
0.311,-0.207602861,0
0.312,-0.211432944,0
0.313,-0.212071291,0
0.314,-0.208560382,0
0.315,-0.20217691,0
0.316,-0.193240049,0
0.317,-0.18270732,0
0.318,-0.17121707,0
0.319,-0.160684341,0
0.32,-0.151428307,0
0.321,-0.144725661,0
0.322,-0.141214751,0
0.323,-0.140895578,0
0.324,-0.144087314,0
0.325,-0.150470786,0
0.326,-0.159088473,0
0.327,-0.168982855,0
0.328,-0.17919641,0
0.329,-0.188771618,0
0.33,-0.197070132,0
0.331,-0.202496083,0
0.332,-0.205049472,0
0.333,-0.204091951,0
0.334,-0.199942695,0
0.335,-0.192920875,0
0.336,-0.183345667,0
0.337,-0.172493764,0
0.338,-0.161641862,0
0.339,-0.151428307,0
0.34,-0.143448966,0
0.341,-0.137703842,0
0.342,-0.135150453,0
0.343,-0.136427147,0
0.344,-0.141214751,0
0.345,-0.148874918,0
0.346,-0.159088473,0
0.347,-0.170259549,0
0.348,-0.181749799,0
0.349,-0.192601702,0
0.35,-0.201538563,0
0.351,-0.207922035,0
0.352,-0.211432944,0
0.353,-0.210794597,0
0.354,-0.206964514,0
0.355,-0.199623521,0
0.356,-0.190367486,0
0.357,-0.179515584,0
0.358,-0.168663681,0
0.359,-0.158450126,0
0.36,-0.150151612,0
0.361,-0.144725661,0
0.362,-0.142172272,0
0.363,-0.143129793,0
0.364,-0.147598223,0
0.365,-0.154620043,0
0.366,-0.163556904,0
0.367,-0.173770459,0
0.368,-0.183664841,0
0.369,-0.192601702,0
0.37,-0.199942695,0
0.371,-0.204411125,0
0.372,-0.205368646,0
0.373,-0.203134431,0
0.374,-0.197389306,0
0.375,-0.188771618,0
0.376,-0.178238889,0
0.377,-0.16674864,0
0.378,-0.15525839,0
0.379,-0.145364008,0
0.38,-0.137384668,0
0.381,-0.13227789,0
0.382,-0.130362849,0
0.383,-0.131958717,0
0.384,-0.137065494,0
0.385,-0.144725661,0
0.386,-0.153981695,0
0.387,-0.164195251,0
0.388,-0.174408806,0
0.389,-0.183345667,0
0.39,-0.190048313,0
0.391,-0.193878396,0
0.392,-0.194516743,0
0.393,-0.191325007,0
0.394,-0.184941535,0
0.395,-0.175366327,0
0.396,-0.164195251,0
0.397,-0.15174748,0
0.398,-0.139618883,0
0.399,-0.128766981,0
0.4,-0.11983012,0
0.401,-0.113765821,0
0.402,-0.111212432,0
0.403,-0.11185078,0
0.404,-0.115680863,0
0.405,-0.122064335,0
0.406,-0.130043675,0
0.407,-0.138342189,0
0.408,-0.146002355,0
0.409,-0.152385827,0
0.41,-0.156535084,0
0.411,-0.157492605,0
0.412,-0.154939216,0
0.413,-0.148555744,0
0.414,-0.13929971,0
0.415,-0.127171113,0
0.416,-0.113127474,0
0.417,-0.098764662,0
0.418,-0.084721023,0
0.419,-0.072273253,0
0.42,-0.062378871,0
0.421,-0.055995399,0
0.422,-0.05344201,0
0.423,-0.054399531,0
0.424,-0.058548788,0
0.425,-0.065251433,0
0.426,-0.073869121,0
0.427,-0.082805982,0
0.428,-0.091742842,0
0.429,-0.099403009,0
0.43,-0.105467307,0
0.431,-0.10833987,0
0.432,-0.10833987,0
0.433,-0.105467307,0
0.434,-0.099403009,0
0.435,-0.091104495,0
0.436,-0.082167634,0
0.437,-0.072592426,0
0.438,-0.064613086,0
0.439,-0.058229614,0
0.44,-0.054718704,0
0.441,-0.054399531,0
0.442,-0.057591267,0
0.443,-0.064613086,0
0.444,-0.074826641,0
0.445,-0.087274412,0
0.446,-0.101318051,0
0.447,-0.115680863,0
0.448,-0.129086154,0
0.449,-0.141214751,0
0.45,-0.150789959,0
0.451,-0.156854258,0
0.452,-0.15972682,0
0.453,-0.158769299,0
0.454,-0.154620043,0
0.455,-0.148236571,0
0.456,-0.14025723,0
0.457,-0.131639543,0
0.458,-0.123979377,0
0.459,-0.117915078,0
0.46,-0.114404168,0
0.461,-0.114404168,0
0.462,-0.117595904,0
0.463,-0.12429855,0
0.464,-0.133554585,0
0.465,-0.144725661,0
0.466,-0.157173431,0
0.467,-0.169302028,0
0.468,-0.180792278,0
0.469,-0.190367486,0
0.47,-0.197389306,0
0.471,-0.201219389,0
0.472,-0.201538563,0
0.473,-0.198666,0
0.474,-0.192920875,0
0.475,-0.184941535,0
0.476,-0.176323848,0
0.477,-0.167386987,0
0.478,-0.159407647,0
0.479,-0.153662522,0
0.48,-0.150470786,0
0.481,-0.150789959,0
0.482,-0.154300869,0
0.483,-0.161003515,0
0.484,-0.170578723,0
0.485,-0.181430625,0
0.486,-0.193240049,0
0.487,-0.204411125,0
0.488,-0.21462468,0
0.489,-0.222284847,0
0.49,-0.227072451,0
0.491,-0.228668319,0
0.492,-0.226434104,0
0.493,-0.220688979,0
0.494,-0.212390465,0
0.495,-0.201857736,0
0.496,-0.19068666,0
0.497,-0.179515584,0
0.498,-0.169621202,0
0.499,-0.161961036,0
0.5,-0.157173431,0
0.501,-0.156215911,0
0.502,-0.158450126,0
0.503,-0.163876077,0
0.504,-0.172174591,0
0.505,-0.182068973,0
0.506,-0.192920875,0
0.507,-0.203453604,0
0.508,-0.212709639,0
0.509,-0.219731458,0
0.51,-0.223880715,0
0.511,-0.224838236,0
0.512,-0.221965673,0
0.513,-0.216220548,0
0.514,-0.207283687,0
0.515,-0.197070132,0
0.516,-0.185899056,0
0.517,-0.175366327,0
0.518,-0.166110292,0
0.519,-0.159407647,0
0.52,-0.155896737,0
0.521,-0.155577563,0
0.522,-0.159088473,0
0.523,-0.165471945,0
0.524,-0.174089633,0
0.525,-0.184303188,0
0.526,-0.19515509,0
0.527,-0.205368646,0
0.528,-0.214305507,0
0.529,-0.220688979,0
0.53,-0.224199888,0
0.531,-0.224199888,0
0.532,-0.220688979,0
0.533,-0.213986333,0
0.534,-0.205049472,0
0.535,-0.194516743,0
0.536,-0.183345667,0
0.537,-0.172812938,0
0.538,-0.163876077,0
0.539,-0.157492605,0
0.54,-0.153662522,0
0.541,-0.153024175,0
0.542,-0.15525839,0
0.543,-0.160365168,0
0.544,-0.166429466,0
0.545,-0.173451285,0
0.546,-0.179515584,0
0.547,-0.183984014,0
0.548,-0.185899056,0
0.549,-0.184303188,0
0.55,-0.178877237,0
0.551,-0.168982855,0
0.552,-0.154939216,0
0.553,-0.137384668,0
0.554,-0.116638384,0
0.555,-0.093657884,0
0.556,-0.06940069,0
0.557,-0.044824323,0
0.558,-0.020886302,0
0.559,0.00145585,0
0.56,0.021244614,0
0.561,0.039118335,0
0.562,0.054119495,0
0.563,0.066886439,0
0.564,0.077419168,0
0.565,0.086356029,0
0.566,0.094016195,0
0.567,0.101038015,0
0.568,0.108059834,0
0.569,0.11476248,0
0.57,0.121784299,0
0.571,0.128806118,0
0.572,0.134870417,0
0.573,0.139338847,0
0.574,0.141573063,0
0.575,0.140615542,0
0.576,0.134870417,0
0.577,0.124018514,0
0.578,0.107421487,0
0.579,0.084760161,0
0.58,0.056034537,0
0.581,0.021882961,0
0.582,-0.016098698,0
0.583,-0.057591267,0
0.584,-0.100041356,0
0.585,-0.142491446,0
0.586,-0.183026493,0
0.587,-0.220369805,0
0.588,-0.252606339,0
0.589,-0.278778575,0
0.59,-0.298567338,0
0.591,-0.311653456,0
0.592,-0.318356102,0
0.593,-0.319632796,0
0.594,-0.31644106,0
0.595,-0.310057588,0
0.596,-0.301759074,0
0.597,-0.293460561,0
0.598,-0.286119568,0
0.599,-0.280374443,0
0.6,-0.277182707,0
0.601,-0.27654436,0
0.602,-0.278778575,0
0.603,-0.282927832,0
0.604,-0.288034609,0
0.605,-0.293460561,0
0.606,-0.297928991,0
0.607,-0.300801554,0
0.608,-0.301439901,0
0.609,-0.298567338,0
0.61,-0.29250304,0
0.611,-0.282608658,0
0.612,-0.26952254,0
0.613,-0.25356386,0
0.614,-0.235690138,0
0.615,-0.217178069,0
0.616,-0.199304347,0
0.617,-0.183026493,0
0.618,-0.169302028,0
0.619,-0.159407647,0
0.62,-0.153343348,0
0.621,-0.151109133,0
0.622,-0.152705001,0
0.623,-0.157173431,0
0.624,-0.163556904,0
0.625,-0.17121707,0
0.626,-0.178877237,0
0.627,-0.185260709,0
0.628,-0.190048313,0
0.629,-0.191644181,0
0.63,-0.190367486,0
0.631,-0.185899056,0
0.632,-0.178558063,0
0.633,-0.168663681,0
0.634,-0.157492605,0
0.635,-0.145364008,0
0.636,-0.134192932,0
0.637,-0.124617724,0
0.638,-0.117276731,0
0.639,-0.113127474,0
0.64,-0.112489127,0
0.641,-0.115042516,0
0.642,-0.120787641,0
0.643,-0.128766981,0
0.644,-0.138342189,0
0.645,-0.148236571,0
0.646,-0.157492605,0
0.647,-0.165152772,0
0.648,-0.170578723,0
0.649,-0.172812938,0
0.65,-0.172174591,0
0.651,-0.16770616,0
0.652,-0.160365168,0
0.653,-0.150470786,0
0.654,-0.13929971,0
0.655,-0.12780946,0
0.656,-0.117276731,0
0.657,-0.10833987,0
0.658,-0.101956398,0
0.659,-0.098764662,0
0.66,-0.099403009,0
0.661,-0.103233092,0
0.662,-0.109935738,0
0.663,-0.118872599,0
0.664,-0.128766981,0
0.665,-0.138980536,0
0.666,-0.148555744,0
0.667,-0.155896737,0
0.668,-0.161003515,0
0.669,-0.162599383,0
0.67,-0.161003515,0
0.671,-0.155896737,0
0.672,-0.147598223,0
0.673,-0.137065494,0
0.674,-0.125575245,0
0.675,-0.113765821,0
0.676,-0.103552266,0
0.677,-0.094934579,0
0.678,-0.089508627,0
0.679,-0.086955238,0
0.68,-0.088231933,0
0.681,-0.092700363,0
0.682,-0.099722183,0
0.683,-0.108978217,0
0.684,-0.119191772,0
0.685,-0.129086154,0
0.686,-0.138342189,0
0.687,-0.145364008,0
0.688,-0.149832439,0
0.689,-0.151109133,0
0.69,-0.148874918,0
0.691,-0.143129793,0
0.692,-0.134192932,0
0.693,-0.123660203,0
0.694,-0.11185078,0
0.695,-0.100041356,0
0.696,-0.089508627,0
0.697,-0.08089094,0
0.698,-0.075145815,0
0.699,-0.073230773,0
0.7,-0.074507468,0
0.701,-0.079614246,0
0.702,-0.087274412,0
0.703,-0.096530447,0
0.704,-0.107063176,0
0.705,-0.117276731,0
0.706,-0.126213592,0
0.707,-0.133235411,0
0.708,-0.137384668,0
0.709,-0.138342189,0
0.71,-0.1357888,0
0.711,-0.129724501,0
0.712,-0.121106814,0
0.713,-0.110254912,0
0.714,-0.098764662,0
0.715,-0.087593586,0
0.716,-0.077699204,0
0.717,-0.070039037,0
0.718,-0.065251433,0
0.719,-0.063974739,0
0.72,-0.065889781,0
0.721,-0.071315732,0
0.722,-0.078975898,0
0.723,-0.088231933,0
0.724,-0.098126315,0
0.725,-0.107701523,0
0.726,-0.116000036,0
0.727,-0.121745161,0
0.728,-0.124936897,0
0.729,-0.12429855,0
0.73,-0.120468467,0
0.731,-0.113446648,0
0.732,-0.103552266,0
0.733,-0.09238119,0
0.734,-0.080571766,0
0.735,-0.06940069,0
0.736,-0.059825482,0
0.737,-0.052484489,0
0.738,-0.048335232,0
0.739,-0.047696885,0
0.74,-0.050250274,0
0.741,-0.056314572,0
0.742,-0.064613086,0
0.743,-0.074507468,0
0.744,-0.084721023,0
0.745,-0.094296231,0
0.746,-0.102275571,0
0.747,-0.107701523,0
0.748,-0.110254912,0
0.749,-0.108978217,0
0.75,-0.104190613,0
0.751,-0.096530447,0
0.752,-0.085997718,0
0.753,-0.074188294,0
0.754,-0.062059697,0
0.755,-0.050569447,0
0.756,-0.040675066,0
0.757,-0.033334073,0
0.758,-0.029184816,0
0.759,-0.028546469,0
0.76,-0.031419031,0
0.761,-0.037164156,0
0.762,-0.045143496,0
0.763,-0.054399531,0
0.764,-0.063974739,0
0.765,-0.0729116,0
0.766,-0.079933419,0
0.767,-0.08440185,0
0.768,-0.08535937,0
0.769,-0.083125155,0
0.77,-0.07738003,0
0.771,-0.068762343,0
0.772,-0.05791044,0
0.773,-0.04546267,0
0.774,-0.033014899,0
0.775,-0.021524649,0
0.776,-0.011630268,0
0.777,-0.004608448,0
0.778,-0.000459192,0
0.779,-0.000140018,0
0.78,-0.00301258,0
0.781,-0.008438532,0
0.782,-0.015779525,0
0.783,-0.024397212,0
0.784,-0.033014899,0
0.785,-0.040355892,0
0.786,-0.045781843,0
0.787,-0.048335232,0
0.788,-0.047377711,0
0.789,-0.042909281,0
0.79,-0.035249114,0
0.791,-0.024397212,0
0.792,-0.011630268,0
0.793,0.002413371,0
0.794,0.015818662,0
0.795,0.028585607,0
0.796,0.039118335,0
0.797,0.046778502,0
0.798,0.050927759,0
0.799,0.051246932,0
0.8,0.048055196,0
0.801,0.041990898,0
0.802,0.034011558,0
0.803,0.024755523,0
0.804,0.015499489,0
0.805,0.007520149,0
0.806,0.00145585,0
0.807,-0.00205506,0
0.808,-0.002374233,0
0.809,0.000817503,0
0.81,0.007200975,0
0.811,0.016137836,0
0.812,0.027308912,0
0.813,0.039437509,0
0.814,0.051246932,0
0.815,0.061779661,0
0.816,0.070078175,0
0.817,0.075504126,0
0.818,0.077419168,0
0.819,0.076142474,0
0.82,0.07135487,0
0.821,0.064013877,0
0.822,0.054757842,0
0.823,0.04486346,0
0.824,0.034969079,0
0.825,0.026670565,0
0.826,0.020287093,0
0.827,0.016776183,0
0.828,0.01645701,0
0.829,0.019329572,0
0.83,0.02539387,0
0.831,0.033692384,0
0.832,0.043586766,0
0.833,0.054119495,0
0.834,0.063694703,0
0.835,0.071993217,0
0.836,0.077738342,0
0.837,0.08029173,0
0.838,0.07933421,0
0.839,0.074546606,0
0.84,0.066886439,0
0.841,0.05635371,0
0.842,0.044544287,0
0.843,0.032096516,0
0.844,0.019967919,0
0.845,0.00943519,0
0.846,0.001775024,0
0.847,-0.003331754,0
0.848,-0.004927622,0
0.849,-0.003331754,0
0.85,0.001136677,0
0.851,0.007839322,0
0.852,0.015818662,0
0.853,0.02443635,0
0.854,0.032734863,0
0.855,0.038799162,0
0.856,0.042310072,0
0.857,0.042629245,0
0.858,0.039118335,0
0.859,0.032096516,0
0.86,0.021882961,0
0.861,0.009116017,0
0.862,-0.004608448,131.5789474
0.863,-0.018971261,131.5789474
0.864,-0.032695726,131.5789474
0.865,-0.044824323,131.5789474
0.866,-0.054399531,131.5789474
0.867,-0.060463829,131.5789474
0.868,-0.063336392,131.5789474
0.869,-0.062378871,131.5789474
0.87,-0.058867961,131.5789474
0.871,-0.052803663,131.5789474
0.872,-0.04546267,131.5789474
0.873,-0.03748333,131.5789474
0.874,-0.030780684,131.5789474
0.875,-0.025354733,131.5789474
0.876,-0.022801344,131.5789474
0.877,-0.023439691,131.5789474
0.878,-0.027588948,131.5789474
0.879,-0.035249114,131.5789474
0.88,-0.045781843,131.5789474
0.881,-0.058229614,131.5789474
0.882,-0.071954079,131.5789474
0.883,-0.085997718,131.5789474
0.884,-0.098764662,131.5789474
0.885,-0.110254912,131.5789474
0.886,-0.118872599,131.5789474
0.887,-0.123979377,131.5789474
0.888,-0.125894418,131.5789474
0.889,-0.12429855,131.5789474
0.89,-0.119510946,131.5789474
0.891,-0.112489127,131.5789474
0.892,-0.104509787,131.5789474
0.893,-0.096530447,131.5789474
0.894,-0.089189454,131.5789474
0.895,-0.083763502,131.5789474
0.896,-0.081210114,131.5789474
0.897,-0.081848461,131.5789474
0.898,-0.085678544,131.5789474
0.899,-0.092700363,131.5789474
0.9,-0.102275571,131.5789474
0.901,-0.113765821,131.5789474
0.902,-0.126213592,131.5789474
0.903,-0.138342189,131.5789474
0.904,-0.149194091,131.5789474
0.905,-0.158130952,131.5789474
0.906,-0.163876077,131.5789474
0.907,-0.16674864,131.5789474
0.908,-0.165791119,131.5789474
0.909,-0.161322688,131.5789474
0.91,-0.154300869,131.5789474
0.911,-0.145044834,131.5789474
0.912,-0.134512106,131.5789474
0.913,-0.12429855,131.5789474
0.914,-0.115361689,131.5789474
0.915,-0.108659044,131.5789474
0.916,-0.10482896,131.5789474
0.917,-0.104509787,131.5789474
0.918,-0.107382349,131.5789474
0.919,-0.113765821,131.5789474
0.92,-0.122383509,131.5789474
0.921,-0.132916238,131.5789474
0.922,-0.144087314,131.5789474
0.923,-0.15525839,131.5789474
0.924,-0.164833598,131.5789474
0.925,-0.172174591,131.5789474
0.926,-0.176323848,131.5789474
0.927,-0.177600542,131.5789474
0.928,-0.175047153,131.5789474
0.929,-0.169302028,131.5789474
0.93,-0.161003515,131.5789474
0.931,-0.151109133,131.5789474
0.932,-0.140576404,131.5789474
0.933,-0.130362849,131.5789474
0.934,-0.121745161,131.5789474
0.935,-0.115361689,131.5789474
0.936,-0.112169953,131.5789474
0.937,-0.112489127,131.5789474
0.938,-0.11631921,131.5789474
0.939,-0.123341029,131.5789474
0.94,-0.132597064,131.5789474
0.941,-0.143448966,131.5789474
0.942,-0.154620043,131.5789474
0.943,-0.165471945,131.5789474
0.944,-0.174408806,131.5789474
0.945,-0.181111452,131.5789474
0.946,-0.184622361,131.5789474
0.947,-0.184303188,131.5789474
0.948,-0.180473105,131.5789474
0.949,-0.173451285,131.5789474
0.95,-0.163876077,131.5789474
0.951,-0.152385827,131.5789474
0.952,-0.140576404,131.5789474
0.953,-0.129405328,131.5789474
0.954,-0.11983012,131.5789474
0.955,-0.113127474,131.5789474
0.956,-0.109297391,131.5789474
0.957,-0.109297391,131.5789474
0.958,-0.1128083,131.5789474
0.959,-0.119191772,131.5789474
0.96,-0.128447807,131.5789474
0.961,-0.138980536,131.5789474
0.962,-0.150151612,131.5789474
0.963,-0.160365168,131.5789474
0.964,-0.168982855,131.5789474
0.965,-0.175366327,131.5789474
0.966,-0.178558063,131.5789474
0.967,-0.177919716,131.5789474
0.968,-0.173770459,131.5789474
0.969,-0.16674864,131.5789474
0.97,-0.157173431,131.5789474
0.971,-0.146321529,131.5789474
0.972,-0.134831279,131.5789474
0.973,-0.12429855,131.5789474
0.974,-0.115361689,131.5789474
0.975,-0.109297391,131.5789474
0.976,-0.106105655,131.5789474
0.977,-0.106105655,131.5789474
0.978,-0.109616564,131.5789474
0.979,-0.115680863,131.5789474
0.98,-0.123979377,131.5789474
0.981,-0.133235411,131.5789474
0.982,-0.142491446,131.5789474
0.983,-0.151109133,131.5789474
0.984,-0.157811779,131.5789474
0.985,-0.161961036,131.5789474
0.986,-0.162918556,131.5789474
0.987,-0.160045994,131.5789474
0.988,-0.153981695,131.5789474
0.989,-0.145044834,131.5789474
0.99,-0.134192932,131.5789474
0.991,-0.122383509,131.5789474
0.992,-0.110574085,131.5789474
0.993,-0.100041356,131.5789474
0.994,-0.092062016,131.5789474
0.995,-0.087274412,131.5789474
0.996,-0.085997718,131.5789474
0.997,-0.088551106,131.5789474
0.998,-0.094296231,131.5789474
0.999,-0.102913919,131.5789474
1,-0.113127474,131.5789474
1.001,-0.12429855,131.5789474
1.002,-0.135469626,131.5789474
1.003,-0.145044834,131.5789474
1.004,-0.152385827,131.5789474
1.005,-0.157173431,131.5789474
1.006,-0.158130952,131.5789474
1.007,-0.15525839,131.5789474
1.008,-0.149194091,131.5789474
1.009,-0.139938057,131.5789474
1.01,-0.128766981,131.5789474
1.011,-0.11631921,131.5789474
1.012,-0.103871439,131.5789474
1.013,-0.092700363,131.5789474
1.014,-0.084082676,131.5789474
1.015,-0.078337551,131.5789474
1.016,-0.076103336,131.5789474
1.017,-0.07738003,131.5789474
1.018,-0.082486808,131.5789474
1.019,-0.090466148,131.5789474
1.02,-0.100679703,131.5789474
1.021,-0.11185078,131.5789474
1.022,-0.122702682,131.5789474
1.023,-0.132597064,131.5789474
1.024,-0.139938057,131.5789474
1.025,-0.144406487,131.5789474
1.026,-0.145364008,131.5789474
1.027,-0.143129793,131.5789474
1.028,-0.137065494,131.5789474
1.029,-0.128447807,131.5789474
1.03,-0.118234252,131.5789474
1.031,-0.106744002,131.5789474
1.032,-0.095892099,131.5789474
1.033,-0.086316891,131.5789474
1.034,-0.079295072,131.5789474
1.035,-0.075145815,131.5789474
1.036,-0.074507468,131.5789474
1.037,-0.077699204,131.5789474
1.038,-0.083763502,131.5789474
1.039,-0.09238119,131.5789474
1.04,-0.102594745,131.5789474
1.041,-0.113446648,131.5789474
1.042,-0.123660203,131.5789474
1.043,-0.132597064,131.5789474
1.044,-0.13929971,131.5789474
1.045,-0.142810619,131.5789474
1.046,-0.142810619,131.5789474
1.047,-0.13929971,131.5789474
1.048,-0.13227789,131.5789474
1.049,-0.123021856,131.5789474
1.05,-0.11185078,131.5789474
1.051,-0.10036053,131.5789474
1.052,-0.089189454,131.5789474
1.053,-0.079933419,131.5789474
1.054,-0.073549947,131.5789474
1.055,-0.070358211,131.5789474
1.056,-0.070996558,131.5789474
1.057,-0.075464989,131.5789474
1.058,-0.083125155,131.5789474
1.059,-0.093019537,131.5789474
1.06,-0.104190613,131.5789474
1.061,-0.116000036,131.5789474
1.062,-0.126851939,131.5789474
1.063,-0.136107974,131.5789474
1.064,-0.142810619,131.5789474
1.065,-0.146640703,131.5789474
1.066,-0.146321529,131.5789474
1.067,-0.142810619,131.5789474
1.068,-0.1357888,131.5789474
1.069,-0.126532765,131.5789474
1.07,-0.115361689,131.5789474
1.071,-0.103871439,131.5789474
1.072,-0.093338711,131.5789474
1.073,-0.084082676,131.5789474
1.074,-0.077699204,131.5789474
1.075,-0.074507468,131.5789474
1.076,-0.074826641,131.5789474
1.077,-0.078656725,131.5789474
1.078,-0.085678544,131.5789474
1.079,-0.095253752,131.5789474
1.08,-0.106105655,131.5789474
1.081,-0.117276731,131.5789474
1.082,-0.128128633,131.5789474
1.083,-0.136746321,131.5789474
1.084,-0.143448966,131.5789474
1.085,-0.146640703,131.5789474
1.086,-0.146321529,131.5789474
1.087,-0.142491446,131.5789474
1.088,-0.1357888,131.5789474
1.089,-0.126851939,131.5789474
1.09,-0.11631921,131.5789474
1.091,-0.106105655,131.5789474
1.092,-0.09684962,131.5789474
1.093,-0.089508627,131.5789474
1.094,-0.084721023,131.5789474
1.095,-0.083444329,131.5789474
1.096,-0.08535937,131.5789474
1.097,-0.090785322,131.5789474
1.098,-0.098764662,131.5789474
1.099,-0.108659044,131.5789474
1.1,-0.119510946,131.5789474
1.101,-0.130362849,131.5789474
1.102,-0.139938057,131.5789474
1.103,-0.14727905,131.5789474
1.104,-0.15174748,131.5789474
1.105,-0.153024175,131.5789474
1.106,-0.150470786,131.5789474
1.107,-0.144406487,131.5789474
1.108,-0.1357888,131.5789474
1.109,-0.124617724,131.5789474
1.11,-0.1128083,131.5789474
1.111,-0.101318051,131.5789474
1.112,-0.091104495,131.5789474
1.113,-0.082805982,131.5789474
1.114,-0.078018377,131.5789474
1.115,-0.076741683,131.5789474
1.116,-0.078975898,131.5789474
1.117,-0.085040197,131.5789474
1.118,-0.093657884,131.5789474
1.119,-0.104190613,131.5789474
1.12,-0.115680863,131.5789474
1.121,-0.126851939,131.5789474
1.122,-0.136427147,131.5789474
1.123,-0.144087314,131.5789474
1.124,-0.148874918,131.5789474
1.125,-0.149832439,131.5789474
1.126,-0.147598223,131.5789474
1.127,-0.141853098,131.5789474
1.128,-0.133235411,131.5789474
1.129,-0.122702682,131.5789474
1.13,-0.111212432,131.5789474
1.131,-0.100041356,131.5789474
1.132,-0.090146974,131.5789474
1.133,-0.082805982,131.5789474
1.134,-0.078337551,131.5789474
1.135,-0.07738003,131.5789474
1.136,-0.080252593,178.5714286
1.137,-0.086316891,178.5714286
1.138,-0.095253752,178.5714286
1.139,-0.105786481,178.5714286
1.14,-0.117276731,178.5714286
1.141,-0.128128633,178.5714286
1.142,-0.138023015,178.5714286
1.143,-0.145044834,178.5714286
1.144,-0.149194091,178.5714286
1.145,-0.149832439,178.5714286
1.146,-0.146640703,178.5714286
1.147,-0.140576404,178.5714286
1.148,-0.131320369,178.5714286
1.149,-0.120787641,178.5714286
1.15,-0.109297391,178.5714286
1.151,-0.098445488,178.5714286
1.152,-0.089189454,178.5714286
1.153,-0.082486808,178.5714286
1.154,-0.078656725,178.5714286
1.155,-0.078656725,178.5714286
1.156,-0.081848461,178.5714286
1.157,-0.088231933,178.5714286
1.158,-0.097168794,178.5714286
1.159,-0.107382349,178.5714286
1.16,-0.118234252,178.5714286
1.161,-0.128447807,178.5714286
1.162,-0.137065494,178.5714286
1.163,-0.143448966,178.5714286
1.164,-0.146640703,178.5714286
1.165,-0.146002355,178.5714286
1.166,-0.142172272,178.5714286
1.167,-0.134831279,178.5714286
1.168,-0.125256071,178.5714286
1.169,-0.114084995,178.5714286
1.17,-0.102913919,178.5714286
1.171,-0.09238119,178.5714286
1.172,-0.083763502,178.5714286
1.173,-0.077699204,178.5714286
1.174,-0.075145815,178.5714286
1.175,-0.076422509,178.5714286
1.176,-0.08089094,178.5714286
1.177,-0.08887028,178.5714286
1.178,-0.099083835,178.5714286
1.179,-0.110574085,178.5714286
1.18,-0.122064335,178.5714286
1.181,-0.13227789,178.5714286
1.182,-0.140576404,178.5714286
1.183,-0.146321529,178.5714286
1.184,-0.148874918,178.5714286
1.185,-0.147917397,178.5714286
1.186,-0.143129793,178.5714286
1.187,-0.135150453,178.5714286
1.188,-0.124936897,178.5714286
1.189,-0.113127474,178.5714286
1.19,-0.101318051,178.5714286
1.191,-0.090146974,178.5714286
1.192,-0.08089094,178.5714286
1.193,-0.074826641,178.5714286
1.194,-0.071634905,178.5714286
1.195,-0.072592426,178.5714286
1.196,-0.076741683,178.5714286
1.197,-0.084082676,178.5714286
1.198,-0.093657884,178.5714286
1.199,-0.104509787,178.5714286
1.2,-0.115361689,178.5714286
1.201,-0.125256071,178.5714286
1.202,-0.133554585,178.5714286
1.203,-0.13929971,178.5714286
1.204,-0.141853098,178.5714286
1.205,-0.140895578,178.5714286
1.206,-0.136427147,178.5714286
1.207,-0.128766981,178.5714286
1.208,-0.118872599,178.5714286
1.209,-0.108020696,178.5714286
1.21,-0.097168794,178.5714286
1.211,-0.087593586,178.5714286
1.212,-0.080252593,178.5714286
1.213,-0.075464989,178.5714286
1.214,-0.074188294,178.5714286
1.215,-0.076422509,178.5714286
1.216,-0.081848461,178.5714286
1.217,-0.090146974,178.5714286
1.218,-0.10036053,178.5714286
1.219,-0.111212432,178.5714286
1.22,-0.121745161,178.5714286
1.221,-0.131001196,178.5714286
1.222,-0.138342189,178.5714286
1.223,-0.142491446,178.5714286
1.224,-0.143129793,178.5714286
1.225,-0.14025723,178.5714286
1.226,-0.133873758,178.5714286
1.227,-0.124936897,178.5714286
1.228,-0.114084995,178.5714286
1.229,-0.102594745,178.5714286
1.23,-0.091104495,178.5714286
1.231,-0.081210114,178.5714286
1.232,-0.073549947,178.5714286
1.233,-0.068762343,178.5714286
1.234,-0.067804822,178.5714286
1.235,-0.070358211,178.5714286
1.236,-0.076103336,178.5714286
1.237,-0.084721023,178.5714286
1.238,-0.094934579,178.5714286
1.239,-0.106105655,178.5714286
1.24,-0.116957557,178.5714286
1.241,-0.126213592,178.5714286
1.242,-0.133554585,178.5714286
1.243,-0.137384668,178.5714286
1.244,-0.138023015,178.5714286
1.245,-0.135150453,178.5714286
1.246,-0.128766981,178.5714286
1.247,-0.11983012,178.5714286
1.248,-0.109297391,178.5714286
1.249,-0.097807141,178.5714286
1.25,-0.087274412,178.5714286
1.251,-0.077699204,178.5714286
1.252,-0.070996558,178.5714286
1.253,-0.067166475,178.5714286
1.254,-0.066847301,178.5714286
1.255,-0.070358211,178.5714286
1.256,-0.076741683,178.5714286
1.257,-0.085678544,178.5714286
1.258,-0.095892099,178.5714286
1.259,-0.107063176,178.5714286
1.26,-0.117276731,178.5714286
1.261,-0.125894418,178.5714286
1.262,-0.13227789,178.5714286
1.263,-0.135469626,178.5714286
1.264,-0.134831279,178.5714286
1.265,-0.131001196,178.5714286
1.266,-0.123660203,178.5714286
1.267,-0.113765821,178.5714286
1.268,-0.102594745,178.5714286
1.269,-0.090785322,178.5714286
1.27,-0.079933419,178.5714286
1.271,-0.070996558,178.5714286
1.272,-0.06493226,178.5714286
1.273,-0.062059697,178.5714286
1.274,-0.063017218,178.5714286
1.275,-0.067166475,178.5714286
1.276,-0.074826641,178.5714286
1.277,-0.084721023,178.5714286
1.278,-0.095892099,178.5714286
1.279,-0.107382349,178.5714286
1.28,-0.118234252,178.5714286
1.281,-0.127490286,178.5714286
1.282,-0.133554585,178.5714286
1.283,-0.136427147,178.5714286
1.284,-0.135469626,178.5714286
1.285,-0.131001196,178.5714286
1.286,-0.123341029,178.5714286
1.287,-0.113446648,178.5714286
1.288,-0.101956398,178.5714286
1.289,-0.090146974,178.5714286
1.29,-0.079295072,178.5714286
1.291,-0.070039037,178.5714286
1.292,-0.063655565,178.5714286
1.293,-0.060783003,178.5714286
1.294,-0.06142135,178.5714286
1.295,-0.065570607,178.5714286
1.296,-0.0729116,178.5714286
1.297,-0.082486808,178.5714286
1.298,-0.093657884,178.5714286
1.299,-0.104509787,178.5714286
1.3,-0.114723342,178.5714286
1.301,-0.123341029,178.5714286
1.302,-0.128766981,178.5714286
1.303,-0.131320369,178.5714286
1.304,-0.130043675,178.5714286
1.305,-0.125256071,178.5714286
1.306,-0.117595904,178.5714286
1.307,-0.107701523,178.5714286
1.308,-0.096530447,178.5714286
1.309,-0.08535937,178.5714286
1.31,-0.075145815,178.5714286
1.311,-0.067166475,178.5714286
1.312,-0.061740524,178.5714286
1.313,-0.059825482,178.5714286
1.314,-0.06142135,178.5714286
1.315,-0.066528128,178.5714286
1.316,-0.074507468,178.5714286
1.317,-0.08440185,178.5714286
1.318,-0.095253752,178.5714286
1.319,-0.106105655,178.5714286
1.32,-0.115680863,178.5714286
1.321,-0.123341029,178.5714286
1.322,-0.12780946,178.5714286
1.323,-0.129086154,178.5714286
1.324,-0.126851939,178.5714286
1.325,-0.121106814,178.5714286
1.326,-0.112169953,178.5714286
1.327,-0.101318051,178.5714286
1.328,-0.089508627,178.5714286
1.329,-0.078018377,178.5714286
1.33,-0.067166475,178.5714286
1.331,-0.058867961,178.5714286
1.332,-0.053122836,178.5714286
1.333,-0.050888621,178.5714286
1.334,-0.052165315,178.5714286
1.335,-0.056633746,178.5714286
1.336,-0.063336392,178.5714286
1.337,-0.072273253,178.5714286
1.338,-0.081529287,178.5714286
1.339,-0.090466148,178.5714286
1.34,-0.098126315,178.5714286
1.341,-0.103552266,178.5714286
1.342,-0.105786481,178.5714286
1.343,-0.104509787,178.5714286
1.344,-0.099403009,178.5714286
1.345,-0.091104495,178.5714286
1.346,-0.079933419,178.5714286
1.347,-0.067166475,178.5714286
1.348,-0.05344201,178.5714286
1.349,-0.040355892,178.5714286
1.35,-0.028546469,178.5714286
1.351,-0.018971261,178.5714286
1.352,-0.012587789,178.5714286
1.353,-0.009396052,178.5714286
1.354,-0.009715226,178.5714286
1.355,-0.013226136,178.5714286
1.356,-0.019290434,178.5714286
1.357,-0.026950601,178.5714286
1.358,-0.035568288,178.5714286
1.359,-0.043228455,178.5714286
1.36,-0.0499311,178.5714286
1.361,-0.054080357,178.5714286
1.362,-0.055037878,178.5714286
1.363,-0.052803663,178.5714286
1.364,-0.046739364,178.5714286
1.365,-0.03748333,178.5714286
1.366,-0.02599308,178.5714286
1.367,-0.012906962,178.5714286
1.368,0.000498329,178.5714286
1.369,0.012626926,178.5714286
1.37,0.023159655,178.5714286
1.371,0.030500648,178.5714286
1.372,0.034649905,178.5714286
1.373,0.034649905,178.5714286
1.374,0.031138995,178.5714286
1.375,0.023798002,178.5714286
1.376,0.013903621,178.5714286
1.377,0.002413371,178.5714286
1.378,-0.0100344,178.5714286
1.379,-0.022162997,178.5714286
1.38,-0.032695726,178.5714286
1.381,-0.040994239,178.5714286
1.382,-0.046739364,178.5714286
1.383,-0.048654406,178.5714286
1.384,-0.047696885,178.5714286
1.385,-0.043547628,178.5714286
1.386,-0.036844982,178.5714286
1.387,-0.028865642,178.5714286
1.388,-0.020567129,178.5714286
1.389,-0.012587789,178.5714286
1.39,-0.00652349,178.5714286
1.391,-0.00301258,178.5714286
1.392,-0.00301258,178.5714286
1.393,-0.006204316,178.5714286
1.394,-0.012906962,178.5714286
1.395,-0.022801344,178.5714286
1.396,-0.034610767,178.5714286
1.397,-0.047377711,178.5714286
1.398,-0.060463829,178.5714286
1.399,-0.0729116,178.5714286
1.4,-0.083125155,178.5714286
1.401,-0.090785322,178.5714286
1.402,-0.095253752,178.5714286
1.403,-0.095892099,178.5714286
1.404,-0.093338711,178.5714286
1.405,-0.087593586,178.5714286
1.406,-0.079614246,178.5714286
1.407,-0.070358211,178.5714286
1.408,-0.06142135,178.5714286
1.409,-0.05344201,178.5714286
1.41,-0.047377711,178.5714286
1.411,-0.044185975,178.5714286
1.412,-0.044185975,178.5714286
1.413,-0.048016059,178.5714286
1.414,-0.055357052,178.5714286
1.415,-0.065570607,178.5714286
1.416,-0.077699204,178.5714286
1.417,-0.091104495,178.5714286
1.418,-0.104190613,178.5714286
1.419,-0.11631921,178.5714286
1.42,-0.126532765,178.5714286
1.421,-0.133554585,178.5714286
1.422,-0.137065494,178.5714286
1.423,-0.137065494,178.5714286
1.424,-0.133235411,178.5714286
1.425,-0.126532765,178.5714286
1.426,-0.117276731,178.5714286
1.427,-0.107063176,178.5714286
1.428,-0.097168794,178.5714286
1.429,-0.087912759,178.5714286
1.43,-0.081210114,178.5714286
1.431,-0.077060857,178.5714286
1.432,-0.076422509,178.5714286
1.433,-0.078975898,178.5714286
1.434,-0.085040197,178.5714286
1.435,-0.093657884,178.5714286
1.436,-0.103871439,178.5714286
1.437,-0.115042516,178.5714286
1.438,-0.126213592,178.5714286
1.439,-0.1357888,178.5714286
1.44,-0.143129793,178.5714286
1.441,-0.147598223,178.5714286
1.442,-0.148555744,178.5714286
1.443,-0.146002355,178.5714286
1.444,-0.139618883,178.5714286
1.445,-0.130682022,178.5714286
1.446,-0.119510946,178.5714286
1.447,-0.107701523,178.5714286
1.448,-0.096211273,178.5714286
1.449,-0.085997718,178.5714286
1.45,-0.078337551,178.5714286
1.451,-0.073549947,178.5714286
1.452,-0.072273253,178.5714286
1.453,-0.074826641,178.5714286
1.454,-0.080571766,178.5714286
1.455,-0.089189454,178.5714286
1.456,-0.099083835,178.5714286
1.457,-0.109935738,178.5714286
1.458,-0.120468467,178.5714286
1.459,-0.129405328,178.5714286
1.46,-0.136107974,178.5714286
1.461,-0.139938057,178.5714286
1.462,-0.14025723,178.5714286
1.463,-0.137065494,178.5714286
1.464,-0.130682022,178.5714286
1.465,-0.121745161,178.5714286
1.466,-0.111212432,178.5714286
1.467,-0.100041356,178.5714286
1.468,-0.089508627,178.5714286
1.469,-0.080571766,178.5714286
1.47,-0.074188294,178.5714286
1.471,-0.070996558,178.5714286
1.472,-0.071315732,178.5714286
1.473,-0.075464989,178.5714286
1.474,-0.082805982,178.5714286
1.475,-0.092700363,178.041543
1.476,-0.103871439,178.041543
1.477,-0.115361689,178.041543
1.478,-0.126213592,178.041543
1.479,-0.135469626,178.041543
1.48,-0.141853098,178.041543
1.481,-0.144725661,178.041543
1.482,-0.14376814,178.041543
1.483,-0.138661362,178.041543
1.484,-0.129405328,178.041543
1.485,-0.117276731,178.041543
1.486,-0.102594745,178.041543
1.487,-0.086636065,178.041543
1.488,-0.070358211,178.041543
1.489,-0.055037878,178.041543
1.49,-0.041313413,178.041543
1.491,-0.029823163,178.041543
1.492,-0.020886302,178.041543
1.493,-0.014822004,178.041543
1.494,-0.01099192,178.041543
1.495,-0.008757705,178.041543
1.496,-0.007481011,178.041543
1.497,-0.005885143,178.041543
1.498,-0.002693407,178.041543
1.499,0.003051718,178.041543
1.5,0.012307753,178.041543
1.501,0.025713044,178.041543
1.502,0.043586766,178.041543
1.503,0.066248092,178.041543
1.504,0.092420327,178.041543
1.505,0.121145952,178.041543
1.506,0.151467444,178.041543
1.507,0.180831416,178.041543
1.508,0.20859952,178.041543
1.509,0.23253754,178.041543
1.51,0.251687956,178.041543
1.511,0.265093248,178.041543
1.512,0.27147672,178.041543
1.513,0.270838373,178.041543
1.514,0.262859032,178.041543
1.515,0.24849622,178.041543
1.516,0.228069109,178.041543
1.517,0.202854395,178.041543
1.518,0.174447944,178.041543
1.519,0.143488104,178.041543
1.52,0.111570744,178.041543
1.521,0.079653383,178.041543
1.522,0.048693544,178.041543
1.523,0.019329572,178.041543
1.524,-0.007481011,178.041543
1.525,-0.032376552,178.041543
1.526,-0.055676225,178.041543
1.527,-0.07738003,178.041543
1.528,-0.098126315,178.041543
1.529,-0.118234252,178.041543
1.53,-0.138023015,178.041543
1.531,-0.158450126,178.041543
1.532,-0.178558063,178.041543
1.533,-0.198666,178.041543
1.534,-0.21813559,178.041543
1.535,-0.236647659,178.041543
1.536,-0.252925513,178.041543
1.537,-0.266649978,178.041543
1.538,-0.27750188,178.041543
1.539,-0.2845237,178.041543
1.54,-0.287077089,178.041543
1.541,-0.285481221,178.041543
1.542,-0.279097748,178.041543
1.543,-0.268884193,178.041543
1.544,-0.255159728,178.041543
1.545,-0.238881874,178.041543
1.546,-0.2216465,178.041543
1.547,-0.203772778,178.041543
1.548,-0.18717575,178.041543
1.549,-0.172493764,178.041543
1.55,-0.160684341,178.041543
1.551,-0.152385827,178.041543
1.552,-0.14727905,178.041543
1.553,-0.145364008,178.041543
1.554,-0.146321529,178.041543
1.555,-0.148555744,178.041543
1.556,-0.15174748,178.041543
1.557,-0.154620043,178.041543
1.558,-0.156215911,178.041543
1.559,-0.156215911,178.041543
1.56,-0.153343348,178.041543
1.561,-0.14727905,178.041543
1.562,-0.138342189,178.041543
1.563,-0.126213592,178.041543
1.564,-0.11185078,178.041543
1.565,-0.096211273,178.041543
1.566,-0.080571766,178.041543
1.567,-0.065570607,178.041543
1.568,-0.053122836,178.041543
1.569,-0.043228455,178.041543
1.57,-0.03748333,178.041543
1.571,-0.035887462,178.041543
1.572,-0.03844085,178.041543
1.573,-0.044824323,178.041543
1.574,-0.054080357,178.041543
1.575,-0.06493226,178.041543
1.576,-0.076741683,178.041543
1.577,-0.088231933,178.041543
1.578,-0.097807141,178.041543
1.579,-0.105148134,178.041543
1.58,-0.109297391,178.041543
1.581,-0.109616564,178.041543
1.582,-0.106105655,178.041543
1.583,-0.099083835,178.041543
1.584,-0.089189454,178.041543
1.585,-0.077699204,178.041543
1.586,-0.065251433,178.041543
1.587,-0.05344201,178.041543
1.588,-0.042909281,178.041543
1.589,-0.035249114,178.041543
1.59,-0.03046151,178.041543
1.591,-0.029184816,178.041543
1.592,-0.031738205,178.041543
1.593,-0.037164156,178.041543
1.594,-0.044824323,178.041543
1.595,-0.054399531,178.041543
1.596,-0.063974739,178.041543
1.597,-0.073230773,178.041543
1.598,-0.08089094,178.041543
1.599,-0.086316891,178.041543
1.6,-0.08887028,178.041543
1.601,-0.087593586,178.041543
1.602,-0.083125155,178.041543
1.603,-0.075784162,178.041543
1.604,-0.065889781,178.041543
1.605,-0.054718704,178.041543
1.606,-0.043228455,178.041543
1.607,-0.032695726,178.041543
1.608,-0.024397212,178.041543
1.609,-0.018652087,178.041543
1.61,-0.016098698,178.041543
1.611,-0.017375393,178.041543
1.612,-0.021843823,178.041543
1.613,-0.029184816,178.041543
1.614,-0.039079198,178.041543
1.615,-0.0499311,178.041543
1.616,-0.060783003,178.041543
1.617,-0.070677385,178.041543
1.618,-0.078337551,178.041543
1.619,-0.083444329,178.041543
1.62,-0.085040197,178.041543
1.621,-0.083125155,178.041543
1.622,-0.077699204,178.041543
1.623,-0.06940069,178.041543
1.624,-0.058548788,178.041543
1.625,-0.046739364,178.041543
1.626,-0.034929941,178.041543
1.627,-0.024078038,178.041543
1.628,-0.015141177,178.041543
1.629,-0.009076879,178.041543
1.63,-0.006842664,178.041543
1.631,-0.007800184,178.041543
1.632,-0.012587789,178.041543
1.633,-0.020247955,178.041543
1.634,-0.029823163,178.041543
1.635,-0.040675066,178.041543
1.636,-0.051207795,178.041543
1.637,-0.061102176,178.041543
1.638,-0.068762343,178.041543
1.639,-0.073869121,178.041543
1.64,-0.075464989,178.041543
1.641,-0.073549947,178.041543
1.642,-0.068123996,178.041543
1.643,-0.059506308,178.041543
1.644,-0.048973579,178.041543
1.645,-0.03748333,178.041543
1.646,-0.026312254,178.041543
1.647,-0.016098698,178.041543
1.648,-0.008438532,178.041543
1.649,-0.003650928,178.041543
1.65,-0.00205506,178.041543
1.651,-0.004289275,178.041543
1.652,-0.009396052,178.041543
1.653,-0.017056219,178.041543
1.654,-0.026631427,178.041543
1.655,-0.036844982,178.041543
1.656,-0.047058538,178.041543
1.657,-0.055676225,178.041543
1.658,-0.062059697,178.041543
1.659,-0.065251433,178.041543
1.66,-0.065251433,178.041543
1.661,-0.061740524,178.041543
1.662,-0.055037878,178.041543
1.663,-0.04546267,178.041543
1.664,-0.03397242,178.041543
1.665,-0.022162997,178.041543
1.666,-0.010672747,178.041543
1.667,-0.000778365,178.041543
1.668,0.006881801,178.041543
1.669,0.011031058,178.041543
1.67,0.011988579,178.041543
1.671,0.009116017,178.041543
1.672,0.003690065,178.041543
1.673,-0.004927622,178.041543
1.674,-0.015141177,178.041543
1.675,-0.025673906,178.041543
1.676,-0.035887462,178.041543
1.677,-0.044505149,178.041543
1.678,-0.050569447,178.041543
1.679,-0.053761184,178.041543
1.68,-0.052803663,178.041543
1.681,-0.048654406,178.041543
1.682,-0.040994239,178.041543
1.683,-0.030780684,178.041543
1.684,-0.018971261,178.041543
1.685,-0.00652349,178.041543
1.686,0.00496676,178.041543
1.687,0.014861142,178.041543
1.688,0.022521308,178.041543
1.689,0.026670565,178.041543
1.69,0.027628086,178.041543
1.691,0.024755523,178.041543
1.692,0.019010398,178.041543
1.693,0.010392711,178.041543
1.694,0.001136677,178.041543
1.695,-0.009076879,178.041543
1.696,-0.018332913,178.041543
1.697,-0.02599308,178.041543
1.698,-0.031099858,178.041543
1.699,-0.033014899,178.041543
1.7,-0.031099858,178.041543
1.701,-0.025673906,178.041543
1.702,-0.017056219,178.041543
1.703,-0.005885143,178.041543
1.704,0.006881801,178.041543
1.705,0.019648746,178.041543
1.706,0.031777343,178.041543
1.707,0.041990898,178.041543
1.708,0.049970238,178.041543
1.709,0.054438668,178.041543
1.71,0.055396189,178.041543
1.711,0.0528428,178.041543
1.712,0.047097676,178.041543
1.713,0.039118335,178.041543
1.714,0.029862301,178.041543
1.715,0.020606266,178.041543
1.716,0.012307753,178.041543
1.717,0.005924281,178.041543
1.718,0.002094197,178.041543
1.719,0.001775024,178.041543
1.72,0.00496676,178.041543
1.721,0.011350232,178.041543
1.722,0.02092544,178.041543
1.723,0.033054037,178.041543
1.724,0.046459328,178.041543
1.725,0.059545446,178.041543
1.726,0.071674043,178.041543
1.727,0.081568425,178.041543
1.728,0.088590244,178.041543
1.729,0.092420327,178.041543
1.73,0.092420327,178.041543
1.731,0.089228591,178.041543
1.732,0.083164293,178.041543
1.733,0.075184953,178.041543
1.734,0.066248092,178.041543
1.735,0.057311231,178.041543
1.736,0.049331891,178.041543
1.737,0.043586766,178.041543
1.738,0.041033377,178.041543
1.739,0.041671724,178.041543
1.74,0.046140155,178.041543
1.741,0.054119495,178.041543
1.742,0.065290571,178.041543
1.743,0.078695862,178.041543
1.744,0.093058675,178.041543
1.745,0.107102313,178.041543
1.746,0.120188431,178.041543
1.747,0.131040334,178.041543
1.748,0.1387005,178.041543
1.749,0.142849757,178.041543
1.75,0.143168931,178.041543
1.751,0.139977195,178.041543
1.752,0.133912896,178.041543
1.753,0.125614382,178.041543
1.754,0.116677521,178.041543
1.755,0.107421487,178.041543
1.756,0.099442147,178.041543
1.757,0.093377848,178.041543
1.758,0.089866939,178.041543
1.759,0.089866939,178.041543
1.76,0.093377848,178.041543
1.761,0.100080494,178.041543
1.762,0.109336529,178.041543
1.763,0.120188431,178.041543
1.764,0.131359507,178.041543
1.765,0.14221141,178.041543
1.766,0.151467444,178.041543
1.767,0.15817009,178.041543
1.768,0.162000173,178.041543
1.769,0.162319347,178.041543
1.77,0.159127611,178.041543
1.771,0.152424965,178.041543
1.772,0.143488104,178.041543
1.773,0.132955375,178.041543
1.774,0.121465126,178.041543
1.775,0.110932397,178.041543
1.776,0.101676362,178.041543
1.777,0.094654543,178.041543
1.778,0.090824459,178.041543
1.779,0.090505286,178.041543
1.78,0.093697022,178.041543
1.781,0.100080494,178.041543
1.782,0.109017355,178.041543
1.783,0.11923091,178.041543
1.784,0.130082813,178.041543
1.785,0.139658021,178.041543
1.786,0.147637361,178.041543
1.787,0.152744139,178.041543
1.788,0.154020833,178.041543
1.789,0.151786618,178.041543
1.79,0.145403146,178.041543
1.791,0.135508764,178.041543
1.792,0.123060994,178.041543
1.793,0.109017355,178.041543
1.794,0.094335369,178.041543
1.795,0.080610904,178.041543
1.796,0.068163134,178.041543
1.797,0.058268752,178.041543
1.798,0.05188528,178.041543
1.799,0.049012717,178.041543
1.8,0.049331891,178.041543
1.801,0.053161974,178.041543
1.802,0.059226273,178.041543
1.803,0.066886439,178.041543
1.804,0.074546606,178.041543
1.805,0.081568425,178.041543
1.806,0.086356029,178.041543
1.807,0.088909418,178.041543
1.808,0.087951897,178.041543
1.809,0.083164293,178.041543
1.81,0.075184953,178.041543
1.811,0.064013877,178.041543
1.812,0.050289412,178.041543
1.813,0.035288252,178.041543
1.814,0.019967919,178.041543
1.815,0.005924281,178.041543
1.816,-0.00652349,178.041543
1.817,-0.016417872,178.041543
1.818,-0.023120517,178.041543
1.819,-0.026312254,178.041543
1.82,-0.025673906,178.041543
1.821,-0.021843823,178.041543
1.822,-0.015779525,178.041543
1.823,-0.008119358,178.041543
1.824,-0.000459192,178.041543
1.825,0.006243454,178.041543
1.826,0.010711885,178.041543
1.827,0.0129461,178.041543
1.828,0.011350232,178.041543
1.829,0.006881801,178.041543
1.83,-0.001097539,178.041543
1.831,-0.012268615,178.041543
1.832,-0.025035559,178.041543
1.833,-0.039079198,178.041543
1.834,-0.052803663,178.041543
1.835,-0.065570607,178.041543
1.836,-0.076103336,178.041543
1.837,-0.083763502,178.041543
1.838,-0.087912759,178.041543
1.839,-0.088551106,178.041543
1.84,-0.08535937,178.041543
1.841,-0.079295072,178.041543
1.842,-0.070996558,178.041543
1.843,-0.06142135,178.041543
1.844,-0.052165315,178.041543
1.845,-0.043866802,178.041543
1.846,-0.037802503,178.041543
1.847,-0.034929941,178.041543
1.848,-0.035249114,178.041543
1.849,-0.039079198,178.041543
1.85,-0.046101017,178.041543
1.851,-0.055995399,178.041543
1.852,-0.067485649,178.041543
1.853,-0.079933419,178.041543
1.854,-0.092062016,178.041543
1.855,-0.102594745,178.041543
1.856,-0.111212432,178.041543
1.857,-0.116638384,178.041543
1.858,-0.118553425,178.041543
1.859,-0.116957557,178.041543
1.86,-0.111531606,178.041543
1.861,-0.103552266,178.041543
1.862,-0.093657884,178.041543
1.863,-0.082805982,178.041543
1.864,-0.072592426,178.041543
1.865,-0.063655565,178.041543
1.866,-0.05695292,178.041543
1.867,-0.05344201,178.041543
1.868,-0.05344201,178.041543
1.869,-0.05695292,178.041543
1.87,-0.063655565,178.041543
1.871,-0.0729116,178.041543
1.872,-0.083763502,178.041543
1.873,-0.095572926,178.041543
1.874,-0.106744002,178.041543
1.875,-0.116957557,178.041543
1.876,-0.124617724,178.041543
1.877,-0.128766981,178.041543
1.878,-0.129405328,178.041543
1.879,-0.126213592,178.041543
1.88,-0.11983012,178.041543
1.881,-0.110893259,178.041543
1.882,-0.100041356,178.041543
1.883,-0.08887028,178.041543
1.884,-0.078018377,178.041543
1.885,-0.068762343,178.041543
1.886,-0.061740524,178.041543
1.887,-0.058229614,178.041543
1.888,-0.05791044,178.041543
1.889,-0.06142135,178.041543
1.89,-0.067804822,178.041543
1.891,-0.077060857,178.041543
1.892,-0.087593586,178.041543
1.893,-0.098445488,178.041543
1.894,-0.108659044,178.041543
1.895,-0.117276731,178.041543
1.896,-0.123341029,178.041543
1.897,-0.126213592,178.041543
1.898,-0.125894418,178.041543
1.899,-0.121745161,178.041543
1.9,-0.114404168,178.041543
1.901,-0.10482896,178.041543
1.902,-0.093657884,178.041543
1.903,-0.081848461,178.041543
1.904,-0.070996558,178.041543
1.905,-0.062059697,178.041543
1.906,-0.055357052,178.041543
1.907,-0.052165315,178.041543
1.908,-0.052803663,178.041543
1.909,-0.056633746,178.041543
1.91,-0.063655565,178.041543
1.911,-0.0729116,178.041543
1.912,-0.083763502,178.041543
1.913,-0.094615405,178.041543
1.914,-0.104509787,178.041543
1.915,-0.1128083,178.041543
1.916,-0.118234252,178.041543
1.917,-0.120468467,178.041543
1.918,-0.119191772,178.041543
1.919,-0.114404168,178.041543
1.92,-0.106105655,178.041543
1.921,-0.095892099,178.041543
1.922,-0.084082676,178.041543
1.923,-0.072273253,178.041543
1.924,-0.06142135,178.041543
1.925,-0.052484489,178.041543
1.926,-0.046420191,178.041543
1.927,-0.043547628,178.041543
1.928,-0.044505149,178.041543
1.929,-0.048973579,178.041543
1.93,-0.055995399,178.041543
1.931,-0.065251433,178.041543
1.932,-0.075784162,178.041543
1.933,-0.085997718,178.041543
1.934,-0.095253752,178.041543
1.935,-0.102594745,178.041543
1.936,-0.107382349,178.041543
1.937,-0.108659044,178.041543
1.938,-0.106105655,178.041543
1.939,-0.10036053,178.041543
1.94,-0.091742842,178.041543
1.941,-0.08089094,178.041543
1.942,-0.069081517,178.041543
1.943,-0.057272093,178.041543
1.944,-0.046420191,178.041543
1.945,-0.038121677,178.041543
1.946,-0.032376552,178.041543
1.947,-0.03046151,178.041543
1.948,-0.032057378,178.041543
1.949,-0.037164156,178.041543
1.95,-0.045143496,178.041543
1.951,-0.054718704,178.041543
1.952,-0.065570607,178.041543
1.953,-0.076103336,178.041543
1.954,-0.08535937,178.041543
1.955,-0.092700363,178.041543
1.956,-0.097168794,178.041543
1.957,-0.098126315,178.041543
1.958,-0.095572926,178.041543
1.959,-0.089508627,178.041543
1.96,-0.08089094,178.041543
1.961,-0.070039037,178.041543
1.962,-0.058229614,178.041543
1.963,-0.047058538,178.041543
1.964,-0.037164156,178.041543
1.965,-0.02950399,178.041543
1.966,-0.024716385,178.041543
1.967,-0.023758865,178.041543
1.968,-0.026312254,178.041543
1.969,-0.032057378,178.041543
1.97,-0.040675066,178.041543
1.971,-0.051207795,178.041543
1.972,-0.062378871,178.041543
1.973,-0.072592426,178.041543
1.974,-0.081848461,178.041543
1.975,-0.088551106,178.041543
1.976,-0.092062016,178.041543
1.977,-0.092062016,178.041543
1.978,-0.088551106,178.041543
1.979,-0.081529287,178.041543
1.98,-0.072273253,178.041543
1.981,-0.060783003,178.041543
1.982,-0.048973579,178.041543
1.983,-0.03748333,178.041543
1.984,-0.027588948,178.041543
1.985,-0.020247955,178.041543
1.986,-0.016098698,178.041543
1.987,-0.015779525,178.041543
1.988,-0.018971261,178.041543
1.989,-0.025673906,178.041543
1.99,-0.034929941,178.041543
1.991,-0.045781843,178.041543
1.992,-0.057272093,178.041543
1.993,-0.068443169,178.041543
1.994,-0.077699204,178.041543
1.995,-0.084721023,178.041543
1.996,-0.08887028,178.041543
1.997,-0.08887028,178.041543
1.998,-0.085678544,178.041543
1.999,-0.079295072,178.041543
2,-0.070358211,178.041543
2.001,-0.059506308,178.041543
2.002,-0.048654406,178.041543
2.003,-0.038121677,178.041543
2.004,-0.02950399,178.041543
2.005,-0.023439691,178.041543
2.006,-0.020567129,178.041543
2.007,-0.021205476,178.041543
2.008,-0.025673906,178.041543
2.009,-0.033014899,178.041543
2.01,-0.042909281,178.041543
2.011,-0.053761184,178.041543
2.012,-0.065251433,178.041543
2.013,-0.075784162,178.041543
2.014,-0.084721023,178.041543
2.015,-0.091104495,178.041543
2.016,-0.093977058,178.041543
2.017,-0.093338711,178.041543
2.018,-0.089189454,178.041543
2.019,-0.081848461,178.041543
2.02,-0.072273253,178.041543
2.021,-0.061102176,178.041543
2.022,-0.049611927,178.041543
2.023,-0.039079198,178.041543
2.024,-0.030142337,178.041543
2.025,-0.024078038,178.041543
2.026,-0.021524649,178.041543
2.027,-0.02248217,178.041543
2.028,-0.027269774,178.041543
2.029,-0.034929941,178.041543
2.03,-0.044505149,178.041543
2.031,-0.055676225,178.041543
2.032,-0.066528128,178.041543
2.033,-0.076741683,178.041543
2.034,-0.08535937,178.041543
2.035,-0.090785322,178.041543
2.036,-0.093338711,178.041543
2.037,-0.092062016,178.041543
2.038,-0.087274412,178.041543
2.039,-0.079295072,178.041543
2.04,-0.06940069,178.041543
2.041,-0.058229614,178.041543
2.042,-0.047058538,178.041543
2.043,-0.037164156,178.041543
2.044,-0.029184816,178.041543
2.045,-0.024078038,178.041543
2.046,-0.022801344,178.041543
2.047,-0.024716385,178.041543
2.048,-0.03046151,178.041543
2.049,-0.038760024,178.041543
2.05,-0.048973579,178.041543
2.051,-0.060144656,178.041543
2.052,-0.070996558,178.041543
2.053,-0.081210114,178.041543
2.054,-0.08887028,178.041543
2.055,-0.093977058,178.041543
2.056,-0.095892099,178.041543
2.057,-0.093977058,178.041543
2.058,-0.08887028,178.041543
2.059,-0.08089094,178.041543
2.06,-0.070996558,178.041543
2.061,-0.059825482,178.041543
2.062,-0.048654406,178.041543
2.063,-0.039079198,178.041543
2.064,-0.031419031,178.041543
2.065,-0.026950601,178.041543
2.066,-0.02599308,178.041543
2.067,-0.028546469,178.041543
2.068,-0.034610767,178.041543
2.069,-0.043228455,178.041543
2.07,-0.05344201,178.041543
2.071,-0.064613086,178.041543
2.072,-0.075145815,178.041543
2.073,-0.08440185,178.041543
2.074,-0.091423669,178.041543
2.075,-0.095253752,178.041543
2.076,-0.095892099,178.041543
2.077,-0.092700363,178.041543
2.078,-0.086316891,178.041543
2.079,-0.077699204,178.041543
2.08,-0.066847301,178.041543
2.081,-0.055676225,178.041543
2.082,-0.044824323,178.041543
2.083,-0.035568288,178.041543
2.084,-0.028865642,178.041543
2.085,-0.025354733,178.041543
2.086,-0.025354733,178.041543
2.087,-0.029184816,178.041543
2.088,-0.036206635,178.041543
2.089,-0.045781843,178.041543
2.09,-0.05695292,178.041543
2.091,-0.068762343,178.041543
2.092,-0.079614246,178.041543
2.093,-0.089189454,178.041543
2.094,-0.096530447,178.041543
2.095,-0.10036053,178.041543
2.096,-0.100679703,178.041543
2.097,-0.097168794,178.041543
2.098,-0.090466148,178.041543
2.099,-0.08089094,178.041543
2.1,-0.06940069,178.041543
2.101,-0.057591267,178.041543
2.102,-0.046420191,178.041543
2.103,-0.036844982,178.041543
2.104,-0.029823163,178.041543
2.105,-0.026312254,178.041543
2.106,-0.026312254,178.041543
2.107,-0.029823163,178.041543
2.108,-0.036844982,178.041543
2.109,-0.045781843,178.041543
2.11,-0.056314572,178.041543
2.111,-0.067166475,178.041543
2.112,-0.07738003,178.041543
2.113,-0.085997718,178.041543
2.114,-0.092062016,178.041543
2.115,-0.094934579,178.041543
2.116,-0.094615405,178.041543
2.117,-0.090785322,178.041543
2.118,-0.083763502,178.041543
2.119,-0.074188294,178.041543
2.12,-0.063017218,178.041543
2.121,-0.051526968,178.041543
2.122,-0.040994239,178.041543
2.123,-0.032057378,178.041543
2.124,-0.02599308,178.041543
2.125,-0.023439691,178.041543
2.126,-0.024397212,178.041543
2.127,-0.028546469,178.041543
2.128,-0.036206635,178.041543
2.129,-0.045781843,178.041543
2.13,-0.05695292,178.041543
2.131,-0.068123996,178.041543
2.132,-0.078337551,178.041543
2.133,-0.086636065,178.041543
2.134,-0.09238119,178.041543
2.135,-0.094934579,178.041543
2.136,-0.093657884,178.041543
2.137,-0.089189454,178.041543
2.138,-0.081210114,178.041543
2.139,-0.071315732,178.041543
2.14,-0.060463829,178.041543
2.141,-0.049292753,178.041543
2.142,-0.039079198,178.041543
2.143,-0.031099858,178.041543
2.144,-0.025673906,178.041543
2.145,-0.024078038,178.041543
2.146,-0.02599308,178.041543
2.147,-0.031419031,178.041543
2.148,-0.040036719,178.041543
2.149,-0.050569447,178.041543
2.15,-0.061740524,178.041543
2.151,-0.0729116,178.041543
2.152,-0.083125155,178.041543
2.153,-0.090785322,178.041543
2.154,-0.095892099,178.041543
2.155,-0.097487967,178.041543
2.156,-0.095253752,178.041543
2.157,-0.089508627,178.041543
2.158,-0.08089094,178.041543
2.159,-0.070358211,178.041543
2.16,-0.058548788,178.041543
2.161,-0.047058538,178.041543
2.162,-0.036525809,178.041543
2.163,-0.028227295,178.041543
2.164,-0.023120517,178.041543
2.165,-0.021524649,178.041543
2.166,-0.023439691,178.041543
2.167,-0.028865642,178.041543
2.168,-0.036844982,178.041543
2.169,-0.047058538,178.041543
2.17,-0.058229614,178.041543
2.171,-0.069081517,178.041543
2.172,-0.079295072,178.041543
2.173,-0.087274412,178.041543
2.174,-0.092062016,178.041543
2.175,-0.093977058,178.041543
2.176,-0.091742842,178.041543
2.177,-0.086316891,178.041543
2.178,-0.078337551,178.041543
2.179,-0.068123996,178.041543
2.18,-0.05695292,178.041543
2.181,-0.046101017,178.041543
2.182,-0.036525809,178.041543
2.183,-0.02950399,178.041543
2.184,-0.025354733,178.041543
2.185,-0.024716385,178.041543
2.186,-0.027588948,178.041543
2.187,-0.033653246,178.041543
2.188,-0.042270934,178.041543
2.189,-0.052484489,178.041543
2.19,-0.063336392,178.041543
2.191,-0.073549947,178.041543
2.192,-0.082486808,178.041543
2.193,-0.08887028,178.041543
2.194,-0.09238119,178.041543
2.195,-0.09238119,178.041543
2.196,-0.088551106,178.041543
2.197,-0.081848461,178.041543
2.198,-0.072273253,178.041543
2.199,-0.06142135,178.041543
2.2,-0.0499311,178.041543
2.201,-0.039079198,178.041543
2.202,-0.030142337,178.041543
2.203,-0.023758865,178.041543
2.204,-0.020567129,178.041543
2.205,-0.020886302,178.041543
2.206,-0.025035559,178.041543
2.207,-0.032057378,178.041543
2.208,-0.04195176,178.041543
2.209,-0.053122836,178.041543
2.21,-0.064613086,178.041543
2.211,-0.075464989,178.041543
2.212,-0.08440185,178.041543
2.213,-0.091104495,178.041543
2.214,-0.094296231,178.041543
2.215,-0.093977058,178.041543
2.216,-0.089827801,178.041543
2.217,-0.082486808,178.041543
2.218,-0.0729116,178.041543
2.219,-0.06142135,178.041543
2.22,-0.0499311,178.041543
2.221,-0.038760024,178.041543
2.222,-0.02950399,178.041543
2.223,-0.022801344,178.041543
2.224,-0.019290434,178.041543
2.225,-0.019609608,178.041543
2.226,-0.023439691,178.041543
2.227,-0.03046151,178.041543
2.228,-0.039717545,178.041543
2.229,-0.050569447,178.041543
2.23,-0.06142135,178.041543
2.231,-0.071634905,178.041543
2.232,-0.079933419,178.041543
2.233,-0.085678544,178.041543
2.234,-0.088231933,178.041543
2.235,-0.086955238,178.041543
2.236,-0.082486808,178.041543
2.237,-0.074826641,178.041543
2.238,-0.06493226,178.041543
2.239,-0.053761184,178.041543
2.24,-0.042590107,178.041543
2.241,-0.032376552,178.041543
2.242,-0.024397212,178.041543
2.243,-0.019290434,178.041543
2.244,-0.017694566,178.041543
2.245,-0.019928781,178.041543
2.246,-0.025354733,178.041543
2.247,-0.033334073,178.041543
2.248,-0.043866802,178.041543
2.249,-0.055357052,178.041543
2.25,-0.066847301,178.041543
2.251,-0.07738003,178.041543
2.252,-0.085997718,178.041543
2.253,-0.091742842,178.041543
2.254,-0.093977058,178.041543
2.255,-0.092700363,178.041543
2.256,-0.087274412,178.041543
2.257,-0.078975898,178.041543
2.258,-0.068443169,178.041543
2.259,-0.056633746,178.041543
2.26,-0.044824323,178.041543
2.261,-0.034291594,178.041543
2.262,-0.02599308,178.041543
2.263,-0.020247955,178.041543
2.264,-0.018332913,178.041543
2.265,-0.020247955,178.041543
2.266,-0.025354733,178.041543
2.267,-0.033014899,178.041543
2.268,-0.042909281,178.041543
2.269,-0.05344201,178.041543
2.27,-0.063974739,178.041543
2.271,-0.073230773,178.041543
2.272,-0.08089094,178.041543
2.273,-0.08535937,178.041543
2.274,-0.086636065,178.041543
2.275,-0.08440185,178.041543
2.276,-0.078975898,178.041543
2.277,-0.070358211,178.041543
2.278,-0.059825482,178.041543
2.279,-0.048654406,178.041543
2.28,-0.03748333,178.041543
2.281,-0.027908122,178.041543
2.282,-0.020247955,178.041543
2.283,-0.015779525,178.041543
2.284,-0.014822004,178.041543
2.285,-0.017694566,178.041543
2.286,-0.023758865,178.041543
2.287,-0.032376552,178.041543
2.288,-0.042909281,178.041543
2.289,-0.053761184,178.041543
2.29,-0.064613086,178.041543
2.291,-0.073869121,178.041543
2.292,-0.08089094,178.041543
2.293,-0.085040197,178.041543
2.294,-0.085678544,178.041543
2.295,-0.082486808,178.041543
2.296,-0.076103336,178.041543
2.297,-0.066847301,178.041543
2.298,-0.055995399,178.041543
2.299,-0.044505149,178.041543
2.3,-0.033653246,178.041543
2.301,-0.024397212,178.041543
2.302,-0.017375393,178.041543
2.303,-0.013545309,178.041543
2.304,-0.013226136,178.041543
2.305,-0.016737045,178.041543
2.306,-0.023120517,178.041543
2.307,-0.032376552,178.041543
2.308,-0.043228455,178.041543
2.309,-0.054399531,178.041543
2.31,-0.06493226,178.041543
2.311,-0.073869121,178.041543
2.312,-0.080252593,178.041543
2.313,-0.083444329,178.041543
2.314,-0.083125155,178.041543
2.315,-0.079295072,178.041543
2.316,-0.071954079,178.041543
2.317,-0.062378871,178.041543
2.318,-0.051207795,178.041543
2.319,-0.039398371,178.041543
2.32,-0.028546469,178.041543
2.321,-0.018971261,178.041543
2.322,-0.012268615,178.041543
2.323,-0.009076879,178.041543
2.324,-0.009396052,178.041543
2.325,-0.013226136,178.041543
2.326,-0.020247955,178.041543
2.327,-0.02950399,178.041543
2.328,-0.040675066,178.041543
2.329,-0.051846142,178.041543
2.33,-0.062059697,178.041543
2.331,-0.070677385,178.041543
2.332,-0.076741683,178.041543
2.333,-0.079614246,178.041543
2.334,-0.078656725,178.041543
2.335,-0.074507468,178.041543
2.336,-0.067166475,178.041543
2.337,-0.057272093,178.041543
2.338,-0.045781843,178.041543
2.339,-0.034291594,178.041543
2.34,-0.023758865,178.041543
2.341,-0.014822004,178.041543
2.342,-0.008757705,178.041543
2.343,-0.006204316,178.041543
2.344,-0.007481011,178.041543
2.345,-0.011949441,178.041543
2.346,-0.019609608,178.041543
2.347,-0.02950399,178.041543
2.348,-0.040355892,178.041543
2.349,-0.051526968,178.041543
2.35,-0.061740524,178.041543
2.351,-0.070039037,178.041543
2.352,-0.075784162,178.041543
2.353,-0.078018377,178.041543
2.354,-0.076422509,178.041543
2.355,-0.071634905,178.041543
2.356,-0.063655565,178.041543
2.357,-0.05344201,178.041543
2.358,-0.042270934,178.041543
2.359,-0.031099858,178.041543
2.36,-0.020886302,178.041543
2.361,-0.012587789,178.041543
2.362,-0.007481011,178.041543
2.363,-0.005885143,178.041543
2.364,-0.008119358,178.041543
2.365,-0.013545309,178.041543
2.366,-0.021843823,178.041543
2.367,-0.032695726,178.041543
2.368,-0.044185975,178.041543
2.369,-0.055995399,178.041543
2.37,-0.066528128,178.041543
2.371,-0.074826641,178.041543
2.372,-0.080252593,178.041543
2.373,-0.082486808,178.041543
2.374,-0.08089094,178.041543
2.375,-0.075784162,178.041543
2.376,-0.067485649,178.041543
2.377,-0.057272093,178.041543
2.378,-0.046101017,178.041543
2.379,-0.034610767,178.041543
2.38,-0.024716385,178.041543
2.381,-0.016737045,178.041543
2.382,-0.011630268,178.041543
2.383,-0.0100344,178.041543
2.384,-0.011630268,178.041543
2.385,-0.016737045,178.041543
2.386,-0.024397212,178.041543
2.387,-0.033653246,178.041543
2.388,-0.043866802,178.041543
2.389,-0.05344201,178.041543
2.39,-0.062059697,178.041543
2.391,-0.068123996,178.041543
2.392,-0.071634905,178.041543
2.393,-0.071315732,178.041543
2.394,-0.067485649,178.041543
2.395,-0.060463829,178.041543
2.396,-0.050569447,178.041543
2.397,-0.039079198,178.041543
2.398,-0.026631427,178.041543
2.399,-0.014822004,178.041543
2.4,-0.004289275,178.041543
2.401,0.003690065,178.041543
2.402,0.008477669,178.041543
2.403,0.010073537,178.041543
2.404,0.008158496,178.041543
2.405,0.003370892,178.041543
2.406,-0.004289275,178.041543
2.407,-0.013226136,178.041543
2.408,-0.023120517,178.041543
2.409,-0.032057378,178.041543
2.41,-0.039398371,178.041543
2.411,-0.044185975,178.041543
2.412,-0.045781843,178.041543
2.413,-0.043228455,178.041543
2.414,-0.037164156,178.041543
2.415,-0.027908122,178.041543
2.416,-0.016098698,178.041543
2.417,-0.002374233,178.041543
2.418,0.011350232,178.041543
2.419,0.024755523,178.041543
2.42,0.036564947,178.041543
2.421,0.045501808,178.041543
2.422,0.051246932,178.041543
2.423,0.053481148,178.041543
2.424,0.052204453,178.041543
2.425,0.047416849,178.041543
2.426,0.040714203,178.041543
2.427,0.032096516,178.041543
2.428,0.023159655,178.041543
2.429,0.014861142,178.041543
2.43,0.008158496,178.041543
2.431,0.003690065,178.041543
2.432,0.002413371,178.041543
2.433,0.004009239,178.041543
2.434,0.008796843,178.041543
2.435,0.016776183,178.041543
2.436,0.026989738,178.041543
2.437,0.038160815,178.041543
2.438,0.049012717,178.041543
2.439,0.058907099,178.041543
2.44,0.066248092,178.041543
2.441,0.070716522,178.041543
2.442,0.07135487,178.041543
2.443,0.06784396,178.041543
2.444,0.060502967,178.041543
2.445,0.049970238,178.041543
2.446,0.037203294,178.041543
2.447,0.022840482,178.041543
2.448,0.008477669,178.041543
2.449,-0.004927622,178.041543
2.45,-0.016417872,178.041543
2.451,-0.025354733,178.041543
2.452,-0.030780684,178.041543
2.453,-0.032376552,178.041543
2.454,-0.03046151,178.041543
2.455,-0.025673906,178.041543
2.456,-0.018332913,178.041543
2.457,-0.009715226,178.041543
2.458,-0.000778365,178.041543
2.459,0.007200975,178.041543
2.46,0.0129461,178.041543
2.461,0.016137836,178.041543
2.462,0.016137836,178.041543
2.463,0.012307753,178.041543
2.464,0.005605107,178.041543
2.465,-0.004289275,178.041543
2.466,-0.016417872,178.041543
2.467,-0.029184816,178.041543
2.468,-0.04195176,63.09148265
2.469,-0.053761184,63.09148265
2.47,-0.063336392,63.09148265
2.471,-0.070358211,63.09148265
2.472,-0.073549947,63.09148265
2.473,-0.073549947,63.09148265
2.474,-0.069719864,63.09148265
2.475,-0.063336392,63.09148265
2.476,-0.055037878,63.09148265
2.477,-0.045781843,63.09148265
2.478,-0.036844982,63.09148265
2.479,-0.029184816,63.09148265
2.48,-0.024078038,63.09148265
2.481,-0.021843823,63.09148265
2.482,-0.023120517,63.09148265
2.483,-0.027908122,63.09148265
2.484,-0.036206635,63.09148265
2.485,-0.047377711,63.09148265
2.486,-0.059825482,63.09148265
2.487,-0.073230773,63.09148265
2.488,-0.086316891,63.09148265
2.489,-0.097487967,63.09148265
2.49,-0.106424828,63.09148265
2.491,-0.11185078,63.09148265
2.492,-0.113765821,63.09148265
2.493,-0.111531606,63.09148265
2.494,-0.105467307,63.09148265
2.495,-0.09684962,63.09148265
2.496,-0.085997718,63.09148265
2.497,-0.074188294,63.09148265
2.498,-0.062698044,63.09148265
2.499,-0.052803663,63.09148265
2.5,-0.044824323,63.09148265
2.501,-0.040036719,63.09148265
2.502,-0.039079198,63.09148265
2.503,-0.041632587,63.09148265
2.504,-0.047696885,63.09148265
2.505,-0.056314572,63.09148265
2.506,-0.066847301,63.09148265
2.507,-0.078018377,63.09148265
2.508,-0.08887028,63.09148265
2.509,-0.098445488,63.09148265
2.51,-0.105467307,63.09148265
2.511,-0.109297391,63.09148265
2.512,-0.109935738,63.09148265
2.513,-0.106744002,63.09148265
2.514,-0.10036053,63.09148265
2.515,-0.090785322,63.09148265
2.516,-0.079933419,63.09148265
2.517,-0.068123996,63.09148265
2.518,-0.05695292,63.09148265
2.519,-0.047696885,63.09148265
2.52,-0.040675066,63.09148265
2.521,-0.037164156,63.09148265
2.522,-0.037164156,63.09148265
2.523,-0.040994239,63.09148265
2.524,-0.048016059,63.09148265
2.525,-0.057272093,63.09148265
2.526,-0.068443169,63.09148265
2.527,-0.079933419,63.09148265
2.528,-0.090785322,63.09148265
2.529,-0.100041356,63.09148265
2.53,-0.106744002,63.09148265
2.531,-0.110574085,63.09148265
2.532,-0.110574085,63.09148265
2.533,-0.107063176,63.09148265
2.534,-0.10036053,63.09148265
2.535,-0.091104495,63.09148265
2.536,-0.080252593,63.09148265
2.537,-0.06940069,63.09148265
2.538,-0.058867961,63.09148265
2.539,-0.050250274,63.09148265
2.54,-0.044185975,63.09148265
2.541,-0.040994239,63.09148265
2.542,-0.041313413,63.09148265
2.543,-0.044824323,63.09148265
2.544,-0.051207795,63.09148265
2.545,-0.059506308,63.09148265
2.546,-0.068443169,63.09148265
2.547,-0.077060857,63.09148265
2.548,-0.083763502,63.09148265
2.549,-0.087912759,63.09148265
2.55,-0.088231933,63.09148265
2.551,-0.08440185,63.09148265
2.552,-0.076103336,63.09148265
2.553,-0.063017218,63.09148265
2.554,-0.046101017,63.09148265
2.555,-0.026312254,63.09148265
2.556,-0.004608448,63.09148265
2.557,0.018052878,63.09148265
2.558,0.040714203,63.09148265
2.559,0.062098835,63.09148265
2.56,0.081887599,63.09148265
2.561,0.099442147,63.09148265
2.562,0.114124133,63.09148265
2.563,0.126571903,63.09148265
2.564,0.137104632,63.09148265
2.565,0.146041493,63.09148265
2.566,0.154340007,63.09148265
2.567,0.162638521,63.09148265
2.568,0.171575381,63.09148265
2.569,0.181469763,63.09148265
2.57,0.192321666,63.09148265
2.571,0.204769436,63.09148265
2.572,0.218174728,63.09148265
2.573,0.232218366,63.09148265
2.574,0.245304484,63.09148265
2.575,0.256156387,63.09148265
2.576,0.26349738,63.09148265
2.577,0.265731595,63.09148265
2.578,0.261582338,63.09148265
2.579,0.250730435,63.09148265
2.58,0.23253754,63.09148265
2.581,0.207003652,63.09148265
2.582,0.174447944,63.09148265
2.583,0.136147111,63.09148265
2.584,0.093058675,63.09148265
2.585,0.046778502,63.09148265
2.586,-0.000140018,63.09148265
2.587,-0.046420191,63.09148265
2.588,-0.089827801,63.09148265
2.589,-0.128766981,63.09148265
2.59,-0.161961036,63.09148265
2.591,-0.188133271,63.09148265
2.592,-0.206964514,63.09148265
2.593,-0.218454764,63.09148265
2.594,-0.223242368,63.09148265
2.595,-0.222923194,63.09148265
2.596,-0.21813559,63.09148265
2.597,-0.211113771,63.09148265
2.598,-0.202496083,63.09148265
2.599,-0.194516743,63.09148265
2.6,-0.188133271,63.09148265
2.601,-0.183984014,63.09148265
2.602,-0.182388146,63.09148265
2.603,-0.183345667,63.09148265
2.604,-0.186856577,63.09148265
2.605,-0.191644181,63.09148265
2.606,-0.197070132,63.09148265
2.607,-0.201857736,63.09148265
2.608,-0.205049472,63.09148265
2.609,-0.205687819,63.09148265
2.61,-0.203134431,63.09148265
2.611,-0.196750958,63.09148265
2.612,-0.186856577,63.09148265
2.613,-0.173132112,63.09148265
2.614,-0.156854258,63.09148265
2.615,-0.138661362,63.09148265
2.616,-0.11983012,63.09148265
2.617,-0.101318051,63.09148265
2.618,-0.08440185,63.09148265
2.619,-0.070358211,63.09148265
2.62,-0.059506308,63.09148265
2.621,-0.052803663,63.09148265
2.622,-0.050250274,63.09148265
2.623,-0.051207795,63.09148265
2.624,-0.055357052,63.09148265
2.625,-0.06142135,63.09148265
2.626,-0.068443169,63.09148265
2.627,-0.075145815,63.09148265
2.628,-0.08089094,63.09148265
2.629,-0.084721023,63.09148265
2.63,-0.085997718,63.09148265
2.631,-0.083763502,63.09148265
2.632,-0.078656725,63.09148265
2.633,-0.070358211,63.09148265
2.634,-0.060144656,63.09148265
2.635,-0.048335232,63.09148265
2.636,-0.036525809,63.09148265
2.637,-0.025354733,63.09148265
2.638,-0.016417872,63.09148265
2.639,-0.0100344,63.09148265
2.64,-0.006842664,63.09148265
2.641,-0.007481011,63.09148265
2.642,-0.011630268,63.09148265
2.643,-0.018971261,63.09148265
2.644,-0.028227295,63.09148265
2.645,-0.039079198,63.09148265
2.646,-0.0499311,63.09148265
2.647,-0.060144656,63.09148265
2.648,-0.068443169,63.09148265
2.649,-0.074188294,63.09148265
2.65,-0.076422509,63.09148265
2.651,-0.075145815,63.09148265
2.652,-0.070358211,63.09148265
2.653,-0.062059697,63.09148265
2.654,-0.051846142,63.09148265
2.655,-0.040036719,63.09148265
2.656,-0.027908122,63.09148265
2.657,-0.017056219,63.09148265
2.658,-0.008119358,63.09148265
2.659,-0.001735886,63.09148265
2.66,0.000817503,63.09148265
2.661,-0.000140018,63.09148265
2.662,-0.004927622,63.09148265
2.663,-0.012268615,63.09148265
2.664,-0.021843823,63.09148265
2.665,-0.032695726,63.09148265
2.666,-0.043547628,63.09148265
2.667,-0.053122836,63.09148265
2.668,-0.061102176,63.09148265
2.669,-0.066208954,63.09148265
2.67,-0.067804822,63.09148265
2.671,-0.065570607,63.09148265
2.672,-0.059825482,63.09148265
2.673,-0.050888621,63.09148265
2.674,-0.039717545,63.09148265
2.675,-0.027269774,63.09148265
2.676,-0.015141177,63.09148265
2.677,-0.003970101,63.09148265
2.678,0.00496676,63.09148265
2.679,0.010392711,63.09148265
2.68,0.0129461,63.09148265
2.681,0.011350232,63.09148265
2.682,0.006562628,63.09148265
2.683,-0.001416712,63.09148265
2.684,-0.011311094,63.09148265
2.685,-0.02248217,63.09148265
2.686,-0.033653246,63.09148265
2.687,-0.043547628,63.09148265
2.688,-0.051526968,63.09148265
2.689,-0.056314572,63.09148265
2.69,-0.05791044,63.09148265
2.691,-0.055995399,63.09148265
2.692,-0.050250274,63.09148265
2.693,-0.041632587,63.09148265
2.694,-0.031099858,63.09148265
2.695,-0.019609608,63.09148265
2.696,-0.008438532,63.09148265
2.697,0.00145585,63.09148265
2.698,0.008796843,63.09148265
2.699,0.013584447,63.09148265
2.7,0.014541968,63.09148265
2.701,0.012307753,63.09148265
2.702,0.006881801,63.09148265
2.703,-0.001416712,63.09148265
2.704,-0.011630268,63.09148265
2.705,-0.02248217,63.09148265
2.706,-0.033014899,63.09148265
2.707,-0.04195176,63.09148265
2.708,-0.048973579,63.09148265
2.709,-0.052484489,63.09148265
2.71,-0.052165315,63.09148265
2.711,-0.048654406,63.09148265
2.712,-0.041313413,63.09148265
2.713,-0.031419031,63.09148265
2.714,-0.019609608,63.09148265
2.715,-0.007161837,63.09148265
2.716,0.00496676,63.09148265
2.717,0.014861142,63.09148265
2.718,0.022840482,63.09148265
2.719,0.027308912,63.09148265
2.72,0.028266433,63.09148265
2.721,0.025713044,63.09148265
2.722,0.019329572,63.09148265
2.723,0.010711885,63.09148265
2.724,0.000498329,63.09148265
2.725,-0.01099192,63.09148265
2.726,-0.021843823,63.09148265
2.727,-0.031099858,63.09148265
2.728,-0.038121677,63.09148265
2.729,-0.04195176,63.09148265
2.73,-0.04195176,63.09148265
2.731,-0.03844085,63.09148265
2.732,-0.031419031,63.09148265
2.733,-0.021843823,63.09148265
2.734,-0.010672747,63.09148265
2.735,0.001136677,63.09148265
2.736,0.011988579,63.09148265
2.737,0.021882961,63.09148265
2.738,0.02890478,63.09148265
2.739,0.033054037,63.09148265
2.74,0.033373211,63.09148265
2.741,0.030181475,63.09148265
2.742,0.024117176,63.09148265
2.743,0.015180315,63.09148265
2.744,0.005605107,63.09148265
2.745,-0.004927622,63.09148265
2.746,-0.01450283,63.09148265
2.747,-0.02248217,63.09148265
2.748,-0.027588948,63.09148265
2.749,-0.02950399,63.09148265
2.75,-0.027588948,63.09148265
2.751,-0.02248217,63.09148265
2.752,-0.013864483,63.09148265
2.753,-0.00301258,63.09148265
2.754,0.009116017,63.09148265
2.755,0.021563787,63.09148265
2.756,0.033373211,63.09148265
2.757,0.043267592,63.09148265
2.758,0.050289412,63.09148265
2.759,0.053800321,63.09148265
2.76,0.053800321,63.09148265
2.761,0.050608585,63.09148265
2.762,0.04390594,63.09148265
2.763,0.035288252,63.09148265
2.764,0.02539387,63.09148265
2.765,0.015180315,63.09148265
2.766,0.006243454,63.09148265
2.767,-0.001097539,63.09148265
2.768,-0.005565969,63.09148265
2.769,-0.006842664,63.09148265
2.77,-0.004289275,63.09148265
2.771,0.002094197,63.09148265
2.772,0.011031058,63.09148265
2.773,0.022521308,63.09148265
2.774,0.035288252,63.09148265
2.775,0.048055196,63.09148265
2.776,0.05986462,63.09148265
2.777,0.069759002,63.09148265
2.778,0.076780821,63.09148265
2.779,0.08029173,63.09148265
2.78,0.079972557,63.09148265
2.781,0.076461647,63.09148265
2.782,0.069759002,63.09148265
2.783,0.061460488,63.09148265
2.784,0.05188528,63.09148265
2.785,0.042948419,63.09148265
2.786,0.034649905,63.09148265
2.787,0.02890478,63.09148265
2.788,0.025713044,63.09148265
2.789,0.026351391,63.09148265
2.79,0.030819822,63.09148265
2.791,0.038479988,63.09148265
2.792,0.049651064,63.09148265
2.793,0.062418009,63.09148265
2.794,0.076461647,63.09148265
2.795,0.090505286,63.09148265
2.796,0.102953056,63.09148265
2.797,0.113485785,63.09148265
2.798,0.120507605,63.09148265
2.799,0.124018514,63.09148265
2.8,0.124018514,63.09148265
2.801,0.120188431,63.09148265
2.802,0.113804959,63.09148265
2.803,0.105187272,63.09148265
2.804,0.095931237,63.09148265
2.805,0.086675203,63.09148265
2.806,0.078695862,63.09148265
2.807,0.072950738,63.09148265
2.808,0.070397349,63.09148265
2.809,0.07135487,63.09148265
2.81,0.0758233,63.09148265
2.811,0.083483467,63.09148265
2.812,0.094335369,63.09148265
2.813,0.10678314,63.09148265
2.814,0.120188431,63.09148265
2.815,0.133274549,63.09148265
2.816,0.144764799,63.09148265
2.817,0.154020833,63.09148265
2.818,0.159765958,63.09148265
2.819,0.162000173,63.09148265
2.82,0.160723479,63.09148265
2.821,0.155935875,63.09148265
2.822,0.148275708,63.09148265
2.823,0.1387005,63.09148265
2.824,0.128486945,63.09148265
2.825,0.118592563,63.09148265
2.826,0.109974876,63.09148265
2.827,0.103591404,63.09148265
2.828,0.100399668,63.09148265
2.829,0.100399668,63.09148265
2.83,0.103910577,63.09148265
2.831,0.110294049,63.09148265
2.832,0.119550084,63.09148265
2.833,0.130401986,63.09148265
2.834,0.141573063,63.09148265
2.835,0.151786618,63.09148265
2.836,0.160404305,63.09148265
2.837,0.166468604,63.09148265
2.838,0.169341166,63.09148265
2.839,0.168383645,63.09148265
2.84,0.163915215,63.09148265
2.841,0.155935875,63.09148265
2.842,0.145722319,63.09148265
2.843,0.133912896,63.09148265
2.844,0.121465126,63.09148265
2.845,0.109655702,63.09148265
2.846,0.099442147,63.09148265
2.847,0.091462807,63.09148265
2.848,0.086994376,63.09148265
2.849,0.085717682,63.09148265
2.85,0.087951897,63.09148265
2.851,0.093377848,63.09148265
2.852,0.101038015,63.09148265
2.853,0.109974876,63.09148265
2.854,0.11923091,63.09148265
2.855,0.127529424,63.09148265
2.856,0.133912896,63.09148265
2.857,0.137104632,63.09148265
2.858,0.137104632,63.09148265
2.859,0.132955375,63.09148265
2.86,0.125295209,63.09148265
2.861,0.11476248,63.09148265
2.862,0.101676362,63.09148265
2.863,0.087632723,151.5151515
2.864,0.072950738,151.5151515
2.865,0.059226273,151.5151515
2.866,0.047416849,151.5151515
2.867,0.037841641,151.5151515
2.868,0.031777343,151.5151515
2.869,0.029223954,151.5151515
2.87,0.030181475,151.5151515
2.871,0.034011558,151.5151515
2.872,0.040075856,151.5151515
2.873,0.047416849,151.5151515
2.874,0.055077016,151.5151515
2.875,0.061141314,151.5151515
2.876,0.065609745,151.5151515
2.877,0.066886439,151.5151515
2.878,0.064971397,151.5151515
2.879,0.059226273,151.5151515
2.88,0.050289412,151.5151515
2.881,0.038160815,151.5151515
2.882,0.023798002,151.5151515
2.883,0.008477669,151.5151515
2.884,-0.006204316,151.5151515
2.885,-0.020247955,151.5151515
2.886,-0.032376552,151.5151515
2.887,-0.041632587,151.5151515
2.888,-0.047377711,151.5151515
2.889,-0.048973579,151.5151515
2.89,-0.047058538,151.5151515
2.891,-0.04195176,151.5151515
2.892,-0.034610767,151.5151515
2.893,-0.026312254,151.5151515
2.894,-0.01801374,151.5151515
2.895,-0.010672747,151.5151515
2.896,-0.005565969,151.5151515
2.897,-0.003331754,151.5151515
2.898,-0.004608448,151.5151515
2.899,-0.009396052,151.5151515
2.9,-0.017694566,151.5151515
2.901,-0.028546469,151.5151515
2.902,-0.041313413,151.5151515
2.903,-0.054718704,151.5151515
2.904,-0.068123996,151.5151515
2.905,-0.079933419,151.5151515
2.906,-0.089827801,151.5151515
2.907,-0.096530447,151.5151515
2.908,-0.099722183,151.5151515
2.909,-0.099403009,151.5151515
2.91,-0.095572926,151.5151515
2.911,-0.08887028,151.5151515
2.912,-0.079933419,151.5151515
2.913,-0.070677385,151.5151515
2.914,-0.061102176,151.5151515
2.915,-0.053122836,151.5151515
2.916,-0.047377711,151.5151515
2.917,-0.044824323,151.5151515
2.918,-0.04546267,151.5151515
2.919,-0.049611927,151.5151515
2.92,-0.057272093,151.5151515
2.921,-0.067485649,151.5151515
2.922,-0.079295072,151.5151515
2.923,-0.091742842,151.5151515
2.924,-0.103871439,151.5151515
2.925,-0.114084995,151.5151515
2.926,-0.122064335,151.5151515
2.927,-0.126851939,151.5151515
2.928,-0.128128633,151.5151515
2.929,-0.125575245,151.5151515
2.93,-0.11983012,151.5151515
2.931,-0.111212432,151.5151515
2.932,-0.100679703,151.5151515
2.933,-0.089508627,151.5151515
2.934,-0.078975898,151.5151515
2.935,-0.070039037,151.5151515
2.936,-0.063655565,151.5151515
2.937,-0.060144656,151.5151515
2.938,-0.060144656,151.5151515
2.939,-0.063655565,151.5151515
2.94,-0.070358211,151.5151515
2.941,-0.079614246,151.5151515
2.942,-0.090466148,151.5151515
2.943,-0.101637224,151.5151515
2.944,-0.112169953,151.5151515
2.945,-0.121425988,151.5151515
2.946,-0.128128633,151.5151515
2.947,-0.131320369,151.5151515
2.948,-0.131320369,151.5151515
2.949,-0.127490286,151.5151515
2.95,-0.120787641,151.5151515
2.951,-0.111531606,151.5151515
2.952,-0.100679703,151.5151515
2.953,-0.089827801,151.5151515
2.954,-0.079295072,151.5151515
2.955,-0.070996558,151.5151515
2.956,-0.06493226,151.5151515
2.957,-0.062059697,151.5151515
2.958,-0.063017218,151.5151515
2.959,-0.067485649,151.5151515
2.96,-0.074826641,151.5151515
2.961,-0.08440185,151.5151515
2.962,-0.095253752,151.5151515
2.963,-0.106105655,151.5151515
2.964,-0.11631921,151.5151515
2.965,-0.124617724,151.5151515
2.966,-0.130043675,151.5151515
2.967,-0.131958717,151.5151515
2.968,-0.130682022,151.5151515
2.969,-0.125575245,151.5151515
2.97,-0.117595904,151.5151515
2.971,-0.107063176,151.5151515
2.972,-0.095572926,151.5151515
2.973,-0.084082676,151.5151515
2.974,-0.073230773,151.5151515
2.975,-0.06493226,151.5151515
2.976,-0.059187135,151.5151515
2.977,-0.057272093,151.5151515
2.978,-0.058867961,151.5151515
2.979,-0.063655565,151.5151515
2.98,-0.071634905,151.5151515
2.981,-0.081848461,151.5151515
2.982,-0.092700363,151.5151515
2.983,-0.103871439,151.5151515
2.984,-0.113446648,151.5151515
2.985,-0.121106814,151.5151515
2.986,-0.125894418,151.5151515
2.987,-0.127171113,151.5151515
2.988,-0.124617724,151.5151515
2.989,-0.118553425,151.5151515
2.99,-0.109297391,151.5151515
2.991,-0.097807141,151.5151515
2.992,-0.08535937,151.5151515
2.993,-0.0729116,151.5151515
2.994,-0.061740524,151.5151515
2.995,-0.052803663,151.5151515
2.996,-0.046739364,151.5151515
2.997,-0.044505149,151.5151515
2.998,-0.046101017,151.5151515
2.999,-0.050888621,151.5151515
3,-0.058867961,151.5151515
3.001,-0.068762343,151.5151515
3.002,-0.079933419,151.5151515
3.003,-0.090785322,151.5151515
3.004,-0.10036053,151.5151515
3.005,-0.108020696,151.5151515
3.006,-0.1128083,151.5151515
3.007,-0.113765821,151.5151515
3.008,-0.111531606,151.5151515
3.009,-0.105786481,151.5151515
3.01,-0.09684962,151.5151515
3.011,-0.086316891,151.5151515
3.012,-0.074507468,151.5151515
3.013,-0.063017218,151.5151515
3.014,-0.053122836,151.5151515
3.015,-0.04546267,151.5151515
3.016,-0.040994239,151.5151515
3.017,-0.039717545,151.5151515
3.018,-0.042270934,151.5151515
3.019,-0.048016059,151.5151515
3.02,-0.056633746,151.5151515
3.021,-0.066847301,151.5151515
3.022,-0.077699204,151.5151515
3.023,-0.088551106,151.5151515
3.024,-0.097807141,151.5151515
3.025,-0.104509787,151.5151515
3.026,-0.108659044,151.5151515
3.027,-0.108659044,151.5151515
3.028,-0.105467307,151.5151515
3.029,-0.098764662,151.5151515
3.03,-0.089189454,151.5151515
3.031,-0.077699204,151.5151515
3.032,-0.065889781,151.5151515
3.033,-0.054718704,151.5151515
3.034,-0.045143496,151.5151515
3.035,-0.038121677,151.5151515
3.036,-0.034291594,151.5151515
3.037,-0.03397242,151.5151515
3.038,-0.03748333,151.5151515
3.039,-0.044185975,151.5151515
3.04,-0.053122836,151.5151515
3.041,-0.063974739,151.5151515
3.042,-0.075145815,151.5151515
3.043,-0.085997718,151.5151515
3.044,-0.095253752,151.5151515
3.045,-0.102275571,151.5151515
3.046,-0.106424828,151.5151515
3.047,-0.106744002,151.5151515
3.048,-0.103552266,151.5151515
3.049,-0.09684962,151.5151515
3.05,-0.087274412,151.5151515
3.051,-0.076103336,151.5151515
3.052,-0.064293912,151.5151515
3.053,-0.05344201,151.5151515
3.054,-0.043866802,151.5151515
3.055,-0.03748333,151.5151515
3.056,-0.034291594,151.5151515
3.057,-0.034291594,151.5151515
3.058,-0.038121677,151.5151515
3.059,-0.044824323,151.5151515
3.06,-0.053761184,151.5151515
3.061,-0.063974739,151.5151515
3.062,-0.074507468,151.5151515
3.063,-0.08440185,151.5151515
3.064,-0.09238119,151.5151515
3.065,-0.097807141,151.5151515
3.066,-0.10036053,151.5151515
3.067,-0.099083835,151.5151515
3.068,-0.094296231,151.5151515
3.069,-0.086955238,151.5151515
3.07,-0.077060857,151.5151515
3.071,-0.066208954,151.5151515
3.072,-0.055037878,151.5151515
3.073,-0.045143496,151.5151515
3.074,-0.037164156,151.5151515
3.075,-0.032057378,151.5151515
3.076,-0.03046151,151.5151515
3.077,-0.032695726,151.5151515
3.078,-0.038121677,151.5151515
3.079,-0.046739364,151.5151515
3.08,-0.05791044,151.5151515
3.081,-0.069719864,151.5151515
3.082,-0.081848461,151.5151515
3.083,-0.092700363,151.5151515
3.084,-0.101637224,151.5151515
3.085,-0.107382349,151.5151515
3.086,-0.109935738,151.5151515
3.087,-0.108659044,151.5151515
3.088,-0.103871439,151.5151515
3.089,-0.095892099,151.5151515
3.09,-0.085678544,151.5151515
3.091,-0.074507468,151.5151515
3.092,-0.063017218,151.5151515
3.093,-0.052803663,151.5151515
3.094,-0.044824323,151.5151515
3.095,-0.039398371,151.5151515
3.096,-0.037802503,151.5151515
3.097,-0.039717545,151.5151515
3.098,-0.044824323,151.5151515
3.099,-0.053122836,151.5151515
3.1,-0.063655565,151.5151515
3.101,-0.074826641,151.5151515
3.102,-0.085997718,151.5151515
3.103,-0.096211273,151.5151515
3.104,-0.103871439,151.5151515
3.105,-0.108978217,151.5151515
3.106,-0.110574085,151.5151515
3.107,-0.10833987,151.5151515
3.108,-0.102594745,151.5151515
3.109,-0.093977058,151.5151515
3.11,-0.083444329,151.5151515
3.111,-0.071634905,151.5151515
3.112,-0.060463829,151.5151515
3.113,-0.050569447,151.5151515
3.114,-0.043228455,151.5151515
3.115,-0.038760024,151.5151515
3.116,-0.038121677,151.5151515
3.117,-0.040994239,151.5151515
3.118,-0.047377711,151.5151515
3.119,-0.056314572,151.5151515
3.12,-0.067166475,151.5151515
3.121,-0.078975898,151.5151515
3.122,-0.090466148,151.5151515
3.123,-0.10036053,151.5151515
3.124,-0.108020696,151.5151515
3.125,-0.1128083,151.5151515
3.126,-0.113765821,151.5151515
3.127,-0.111212432,151.5151515
3.128,-0.10482896,151.5151515
3.129,-0.095892099,151.5151515
3.13,-0.085040197,151.5151515
3.131,-0.073549947,151.5151515
3.132,-0.062378871,151.5151515
3.133,-0.052803663,151.5151515
3.134,-0.04546267,151.5151515
3.135,-0.04195176,151.5151515
3.136,-0.04195176,151.5151515
3.137,-0.046101017,151.5151515
3.138,-0.05344201,151.5151515
3.139,-0.063655565,151.5151515
3.14,-0.075464989,151.5151515
3.141,-0.087593586,151.5151515
3.142,-0.099083835,151.5151515
3.143,-0.108978217,151.5151515
3.144,-0.11631921,151.5151515
3.145,-0.120787641,151.5151515
3.146,-0.121425988,151.5151515
3.147,-0.118234252,151.5151515
3.148,-0.111531606,151.5151515
3.149,-0.102275571,151.5151515
3.15,-0.090785322,151.5151515
3.151,-0.078656725,151.5151515
3.152,-0.067166475,151.5151515
3.153,-0.057272093,151.5151515
3.154,-0.049611927,151.5151515
3.155,-0.04546267,151.5151515
3.156,-0.044824323,151.5151515
3.157,-0.048016059,178.041543
3.158,-0.054080357,178.041543
3.159,-0.063017218,178.041543
3.16,-0.073230773,178.041543
3.161,-0.08440185,178.041543
3.162,-0.094615405,178.041543
3.163,-0.103552266,178.041543
3.164,-0.109935738,178.041543
3.165,-0.113446648,178.041543
3.166,-0.113127474,178.041543
3.167,-0.109297391,178.041543
3.168,-0.102594745,178.041543
3.169,-0.093338711,178.041543
3.17,-0.082486808,178.041543
3.171,-0.071634905,178.041543
3.172,-0.06142135,178.041543
3.173,-0.052803663,178.041543
3.174,-0.047377711,178.041543
3.175,-0.044824323,178.041543
3.176,-0.046420191,178.041543
3.177,-0.051207795,178.041543
3.178,-0.059187135,178.041543
3.179,-0.06940069,178.041543
3.18,-0.080571766,178.041543
3.181,-0.091742842,178.041543
3.182,-0.102275571,178.041543
3.183,-0.110574085,178.041543
3.184,-0.11631921,178.041543
3.185,-0.118553425,178.041543
3.186,-0.117276731,178.041543
3.187,-0.112489127,178.041543
3.188,-0.104509787,178.041543
3.189,-0.094615405,178.041543
3.19,-0.083125155,178.041543
3.191,-0.071954079,178.041543
3.192,-0.061740524,178.041543
3.193,-0.053761184,178.041543
3.194,-0.048654406,178.041543
3.195,-0.047377711,178.041543
3.196,-0.049611927,178.041543
3.197,-0.055357052,178.041543
3.198,-0.063974739,178.041543
3.199,-0.074826641,178.041543
3.2,-0.086316891,178.041543
3.201,-0.098126315,178.041543
3.202,-0.10833987,178.041543
3.203,-0.116957557,178.041543
3.204,-0.122064335,178.041543
3.205,-0.123979377,178.041543
3.206,-0.122064335,178.041543
3.207,-0.11631921,178.041543
3.208,-0.107701523,178.041543
3.209,-0.09684962,178.041543
3.21,-0.085040197,178.041543
3.211,-0.0729116,178.041543
3.212,-0.062059697,178.041543
3.213,-0.053761184,178.041543
3.214,-0.048016059,178.041543
3.215,-0.046420191,178.041543
3.216,-0.048016059,178.041543
3.217,-0.05344201,178.041543
3.218,-0.061740524,178.041543
3.219,-0.071954079,178.041543
3.22,-0.083125155,178.041543
3.221,-0.093977058,178.041543
3.222,-0.103871439,178.041543
3.223,-0.111531606,178.041543
3.224,-0.116000036,178.041543
3.225,-0.117276731,178.041543
3.226,-0.114723342,178.041543
3.227,-0.108978217,178.041543
3.228,-0.10036053,178.041543
3.229,-0.090146974,178.041543
3.23,-0.078975898,178.041543
3.231,-0.068123996,178.041543
3.232,-0.058867961,178.041543
3.233,-0.052165315,178.041543
3.234,-0.048335232,178.041543
3.235,-0.048335232,178.041543
3.236,-0.051846142,178.041543
3.237,-0.058548788,178.041543
3.238,-0.068123996,178.041543
3.239,-0.079295072,178.041543
3.24,-0.091104495,178.041543
3.241,-0.102275571,178.041543
3.242,-0.112169953,178.041543
3.243,-0.119191772,178.041543
3.244,-0.122702682,178.041543
3.245,-0.122702682,178.041543
3.246,-0.118872599,178.041543
3.247,-0.111531606,178.041543
3.248,-0.101956398,178.041543
3.249,-0.090466148,178.041543
3.25,-0.078337551,178.041543
3.251,-0.066528128,178.041543
3.252,-0.056314572,178.041543
3.253,-0.048973579,178.041543
3.254,-0.044505149,178.041543
3.255,-0.044185975,178.041543
3.256,-0.047377711,178.041543
3.257,-0.054080357,178.041543
3.258,-0.063336392,178.041543
3.259,-0.074507468,178.041543
3.26,-0.085997718,178.041543
3.261,-0.097168794,178.041543
3.262,-0.106744002,178.041543
3.263,-0.113765821,178.041543
3.264,-0.117595904,178.041543
3.265,-0.117595904,178.041543
3.266,-0.114404168,178.041543
3.267,-0.107701523,178.041543
3.268,-0.098445488,178.041543
3.269,-0.087274412,178.041543
3.27,-0.076103336,178.041543
3.271,-0.065251433,178.041543
3.272,-0.056314572,178.041543
3.273,-0.0499311,178.041543
3.274,-0.047058538,178.041543
3.275,-0.047377711,178.041543
3.276,-0.051526968,178.041543
3.277,-0.058867961,178.041543
3.278,-0.068443169,178.041543
3.279,-0.079295072,178.041543
3.28,-0.090466148,178.041543
3.281,-0.100679703,178.041543
3.282,-0.109297391,178.041543
3.283,-0.115042516,178.041543
3.284,-0.117595904,178.041543
3.285,-0.116638384,178.041543
3.286,-0.112169953,178.041543
3.287,-0.104509787,178.041543
3.288,-0.094615405,178.041543
3.289,-0.083763502,178.041543
3.29,-0.072273253,178.041543
3.291,-0.062059697,178.041543
3.292,-0.053761184,178.041543
3.293,-0.048335232,178.041543
3.294,-0.046420191,178.041543
3.295,-0.048335232,178.041543
3.296,-0.05344201,178.041543
3.297,-0.061740524,178.041543
3.298,-0.071954079,178.041543
3.299,-0.083125155,178.041543
3.3,-0.093977058,178.041543
3.301,-0.104190613,178.041543
3.302,-0.112169953,178.041543
3.303,-0.117595904,178.041543
3.304,-0.119510946,178.041543
3.305,-0.117595904,178.041543
3.306,-0.11185078,178.041543
3.307,-0.103233092,178.041543
3.308,-0.09238119,178.041543
3.309,-0.080252593,178.041543
3.31,-0.068443169,178.041543
3.311,-0.05791044,178.041543
3.312,-0.0499311,178.041543
3.313,-0.044824323,178.041543
3.314,-0.043547628,178.041543
3.315,-0.045781843,178.041543
3.316,-0.051526968,178.041543
3.317,-0.060144656,178.041543
3.318,-0.070677385,178.041543
3.319,-0.082167634,178.041543
3.32,-0.093338711,178.041543
3.321,-0.103552266,178.041543
3.322,-0.11185078,178.041543
3.323,-0.116638384,178.041543
3.324,-0.118234252,178.041543
3.325,-0.116000036,178.041543
3.326,-0.110254912,178.041543
3.327,-0.101637224,178.041543
3.328,-0.091104495,178.041543
3.329,-0.079614246,178.041543
3.33,-0.068443169,178.041543
3.331,-0.058548788,178.041543
3.332,-0.051207795,178.041543
3.333,-0.046739364,178.041543
3.334,-0.045781843,178.041543
3.335,-0.048335232,178.041543
3.336,-0.054399531,178.041543
3.337,-0.063336392,178.041543
3.338,-0.073869121,178.041543
3.339,-0.08535937,178.041543
3.34,-0.096530447,178.041543
3.341,-0.106105655,178.041543
3.342,-0.113446648,178.041543
3.343,-0.117595904,178.041543
3.344,-0.117915078,178.041543
3.345,-0.114404168,178.041543
3.346,-0.107701523,178.041543
3.347,-0.097807141,178.041543
3.348,-0.086316891,178.041543
3.349,-0.074188294,178.041543
3.35,-0.062698044,178.041543
3.351,-0.052484489,178.041543
3.352,-0.045143496,178.041543
3.353,-0.041313413,178.041543
3.354,-0.040994239,178.041543
3.355,-0.044185975,178.041543
3.356,-0.050888621,178.041543
3.357,-0.060463829,178.041543
3.358,-0.071315732,178.041543
3.359,-0.082805982,178.041543
3.36,-0.093657884,178.041543
3.361,-0.102913919,178.041543
3.362,-0.109935738,178.041543
3.363,-0.113765821,178.041543
3.364,-0.113765821,178.041543
3.365,-0.110574085,178.041543
3.366,-0.103871439,178.041543
3.367,-0.094615405,178.041543
3.368,-0.083763502,178.041543
3.369,-0.072273253,178.041543
3.37,-0.06142135,178.041543
3.371,-0.052165315,178.041543
3.372,-0.04546267,178.041543
3.373,-0.042270934,178.041543
3.374,-0.042270934,178.041543
3.375,-0.046101017,178.041543
3.376,-0.053122836,178.041543
3.377,-0.062698044,178.041543
3.378,-0.073549947,178.041543
3.379,-0.084721023,178.041543
3.38,-0.095253752,178.041543
3.381,-0.103871439,178.041543
3.382,-0.109935738,178.041543
3.383,-0.1128083,178.041543
3.384,-0.11185078,178.041543
3.385,-0.107382349,178.041543
3.386,-0.099722183,178.041543
3.387,-0.089508627,178.041543
3.388,-0.078337551,178.041543
3.389,-0.066847301,178.041543
3.39,-0.055995399,178.041543
3.391,-0.047377711,178.041543
3.392,-0.041632587,178.041543
3.393,-0.039398371,178.041543
3.394,-0.040675066,178.041543
3.395,-0.045781843,178.041543
3.396,-0.053761184,178.041543
3.397,-0.063974739,178.041543
3.398,-0.075145815,178.041543
3.399,-0.086636065,178.041543
3.4,-0.09684962,178.041543
3.401,-0.105148134,178.041543
3.402,-0.110574085,178.041543
3.403,-0.112489127,178.041543
3.404,-0.110893259,178.041543
3.405,-0.105148134,178.041543
3.406,-0.096530447,178.041543
3.407,-0.085678544,178.041543
3.408,-0.073549947,178.041543
3.409,-0.06142135,178.041543
3.41,-0.0499311,178.041543
3.411,-0.040355892,178.041543
3.412,-0.033334073,178.041543
3.413,-0.029823163,178.041543
3.414,-0.029823163,178.041543
3.415,-0.033334073,178.041543
3.416,-0.039079198,178.041543
3.417,-0.047058538,178.041543
3.418,-0.055676225,178.041543
3.419,-0.064293912,178.041543
3.42,-0.071634905,178.041543
3.421,-0.076741683,178.041543
3.422,-0.079295072,178.041543
3.423,-0.078018377,178.041543
3.424,-0.073549947,178.041543
3.425,-0.065251433,178.041543
3.426,-0.054399531,178.041543
3.427,-0.041632587,178.041543
3.428,-0.027908122,178.041543
3.429,-0.01450283,178.041543
3.43,-0.002374233,178.041543
3.431,0.007200975,178.041543
3.432,0.013265273,178.041543
3.433,0.015818662,178.041543
3.434,0.014541968,178.041543
3.435,0.010073537,178.041543
3.436,0.003051718,178.041543
3.437,-0.006204316,178.041543
3.438,-0.015779525,178.041543
3.439,-0.025354733,178.041543
3.44,-0.033014899,178.041543
3.441,-0.038760024,178.041543
3.442,-0.041313413,178.041543
3.443,-0.040355892,178.041543
3.444,-0.035568288,178.041543
3.445,-0.027908122,178.041543
3.446,-0.017375393,178.041543
3.447,-0.005565969,178.041543
3.448,0.007200975,178.041543
3.449,0.018372051,178.041543
3.45,0.028266433,178.041543
3.451,0.035607426,178.041543
3.452,0.039118335,178.041543
3.453,0.038799162,178.041543
3.454,0.034330731,178.041543
3.455,0.026032218,178.041543
3.456,0.014861142,178.041543
3.457,0.002413371,178.041543
3.458,-0.011630268,178.041543
3.459,-0.025035559,178.041543
3.46,-0.037164156,178.041543
3.461,-0.047058538,178.041543
3.462,-0.053761184,178.041543
3.463,-0.05695292,178.041543
3.464,-0.056314572,178.041543
3.465,-0.052484489,178.041543
3.466,-0.046101017,178.041543
3.467,-0.037802503,178.041543
3.468,-0.028865642,178.041543
3.469,-0.020567129,178.041543
3.47,-0.013864483,178.041543
3.471,-0.0100344,178.041543
3.472,-0.009076879,178.041543
3.473,-0.011949441,178.041543
3.474,-0.01801374,178.041543
3.475,-0.027588948,178.041543
3.476,-0.039398371,178.041543
3.477,-0.052484489,178.041543
3.478,-0.066208954,178.041543
3.479,-0.079295072,178.041543
3.48,-0.090466148,178.041543
3.481,-0.099083835,178.041543
3.482,-0.104509787,178.041543
3.483,-0.106424828,178.041543
3.484,-0.104509787,178.041543
3.485,-0.099403009,178.041543
3.486,-0.092062016,178.041543
3.487,-0.083444329,178.041543
3.488,-0.074507468,178.041543
3.489,-0.066208954,178.041543
3.49,-0.060144656,178.041543
3.491,-0.05695292,178.041543
3.492,-0.056633746,178.041543
3.493,-0.060463829,178.041543
3.494,-0.067166475,178.041543
3.495,-0.07738003,178.041543
3.496,-0.089508627,178.041543
3.497,-0.102594745,178.041543
3.498,-0.116000036,178.041543
3.499,-0.128128633,178.041543
3.5,-0.138023015,178.041543
3.501,-0.145044834,178.041543
3.502,-0.148555744,178.041543
3.503,-0.148236571,178.041543
3.504,-0.14376814,178.041543
3.505,-0.136107974,178.041543
3.506,-0.126213592,178.041543
3.507,-0.114404168,178.041543
3.508,-0.102594745,178.041543
3.509,-0.091742842,178.041543
3.51,-0.082805982,178.041543
3.511,-0.076741683,178.041543
3.512,-0.074507468,178.041543
3.513,-0.075784162,178.041543
3.514,-0.080571766,168.0672269
3.515,-0.088231933,168.0672269
3.516,-0.098126315,168.0672269
3.517,-0.108978217,168.0672269
3.518,-0.11983012,168.0672269
3.519,-0.129724501,168.0672269
3.52,-0.137703842,168.0672269
3.521,-0.142810619,168.0672269
3.522,-0.144725661,168.0672269
3.523,-0.143129793,168.0672269
3.524,-0.138023015,168.0672269
3.525,-0.129724501,168.0672269
3.526,-0.119510946,168.0672269
3.527,-0.10833987,168.0672269
3.528,-0.097168794,168.0672269
3.529,-0.087274412,168.0672269
3.53,-0.079614246,168.0672269
3.531,-0.075145815,168.0672269
3.532,-0.074188294,168.0672269
3.533,-0.076422509,168.0672269
3.534,-0.082167634,168.0672269
3.535,-0.090785322,168.0672269
3.536,-0.100998877,168.0672269
3.537,-0.112169953,168.0672269
3.538,-0.122702682,168.0672269
3.539,-0.131958717,168.0672269
3.54,-0.13929971,168.0672269
3.541,-0.143448966,168.0672269
3.542,-0.144087314,168.0672269
3.543,-0.141214751,168.0672269
3.544,-0.134831279,168.0672269
3.545,-0.125575245,168.0672269
3.546,-0.114723342,168.0672269
3.547,-0.102913919,168.0672269
3.548,-0.092062016,168.0672269
3.549,-0.082486808,168.0672269
3.55,-0.075784162,168.0672269
3.551,-0.072273253,168.0672269
3.552,-0.072273253,168.0672269
3.553,-0.076103336,168.0672269
3.554,-0.083125155,168.0672269
3.555,-0.09238119,168.0672269
3.556,-0.102913919,168.0672269
3.557,-0.113765821,168.0672269
3.558,-0.123341029,168.0672269
3.559,-0.130682022,168.0672269
3.56,-0.134831279,168.0672269
3.561,-0.134512106,168.0672269
3.562,-0.129724501,168.0672269
3.563,-0.120149293,168.0672269
3.564,-0.106105655,168.0672269
3.565,-0.088551106,168.0672269
3.566,-0.068123996,168.0672269
3.567,-0.046420191,168.0672269
3.568,-0.024397212,168.0672269
3.569,-0.00301258,168.0672269
3.57,0.016137836,168.0672269
3.571,0.033373211,168.0672269
3.572,0.048055196,168.0672269
3.573,0.060183793,168.0672269
3.574,0.070078175,168.0672269
3.575,0.078376689,168.0672269
3.576,0.086356029,168.0672269
3.577,0.094654543,168.0672269
3.578,0.103591404,168.0672269
3.579,0.114443306,168.0672269
3.58,0.12721025,168.0672269
3.581,0.142530583,168.0672269
3.582,0.159446784,168.0672269
3.583,0.178278027,168.0672269
3.584,0.19710927,168.0672269
3.585,0.215621339,168.0672269
3.586,0.231580019,168.0672269
3.587,0.24402779,168.0672269
3.588,0.251049609,168.0672269
3.589,0.25200713,168.0672269
3.59,0.245623658,168.0672269
3.591,0.231580019,168.0672269
3.592,0.209876214,168.0672269
3.593,0.180831416,168.0672269
3.594,0.145403146,168.0672269
3.595,0.104868098,168.0672269
3.596,0.061460488,168.0672269
3.597,0.01645701,168.0672269
3.598,-0.027588948,168.0672269
3.599,-0.06940069,168.0672269
3.6,-0.107382349,168.0672269
3.601,-0.139938057,168.0672269
3.602,-0.166110292,168.0672269
3.603,-0.18621823,168.0672269
3.604,-0.200261868,168.0672269
3.605,-0.208560382,168.0672269
3.606,-0.212709639,168.0672269
3.607,-0.21366716,168.0672269
3.608,-0.212709639,168.0672269
3.609,-0.211432944,168.0672269
3.61,-0.210794597,168.0672269
3.611,-0.211752118,168.0672269
3.612,-0.214943854,168.0672269
3.613,-0.220369805,168.0672269
3.614,-0.227710798,168.0672269
3.615,-0.235690138,168.0672269
3.616,-0.244307826,168.0672269
3.617,-0.251967992,168.0672269
3.618,-0.258032291,168.0672269
3.619,-0.261224027,168.0672269
3.62,-0.2615432,168.0672269
3.621,-0.257393943,168.0672269
3.622,-0.249414603,168.0672269
3.623,-0.237286006,168.0672269
3.624,-0.2216465,168.0672269
3.625,-0.203453604,168.0672269
3.626,-0.183984014,168.0672269
3.627,-0.164514424,168.0672269
3.628,-0.146321529,168.0672269
3.629,-0.130043675,168.0672269
3.63,-0.116957557,168.0672269
3.631,-0.107382349,168.0672269
3.632,-0.101956398,168.0672269
3.633,-0.100041356,168.0672269
3.634,-0.101637224,168.0672269
3.635,-0.105786481,168.0672269
3.636,-0.111212432,168.0672269
3.637,-0.116957557,168.0672269
3.638,-0.122383509,168.0672269
3.639,-0.125894418,168.0672269
3.64,-0.127171113,168.0672269
3.641,-0.125575245,168.0672269
3.642,-0.121106814,168.0672269
3.643,-0.113446648,168.0672269
3.644,-0.103552266,168.0672269
3.645,-0.092062016,168.0672269
3.646,-0.080252593,168.0672269
3.647,-0.068762343,168.0672269
3.648,-0.059187135,168.0672269
3.649,-0.051846142,168.0672269
3.65,-0.047696885,168.0672269
3.651,-0.047377711,168.0672269
3.652,-0.050569447,168.0672269
3.653,-0.056633746,168.0672269
3.654,-0.065570607,168.0672269
3.655,-0.076103336,168.0672269
3.656,-0.087274412,168.0672269
3.657,-0.097807141,168.0672269
3.658,-0.106744002,168.0672269
3.659,-0.113127474,168.0672269
3.66,-0.11631921,168.0672269
3.661,-0.116000036,168.0672269
3.662,-0.11185078,168.0672269
3.663,-0.104509787,168.0672269
3.664,-0.094296231,168.0672269
3.665,-0.082486808,168.0672269
3.666,-0.070039037,168.0672269
3.667,-0.05791044,168.0672269
3.668,-0.047696885,168.0672269
3.669,-0.040036719,168.0672269
3.67,-0.035568288,168.0672269
3.671,-0.034929941,168.0672269
3.672,-0.037802503,168.0672269
3.673,-0.044185975,168.0672269
3.674,-0.053122836,168.0672269
3.675,-0.063655565,168.0672269
3.676,-0.074507468,168.0672269
3.677,-0.085040197,168.0672269
3.678,-0.093977058,168.0672269
3.679,-0.10036053,168.0672269
3.68,-0.103552266,168.0672269
3.681,-0.103233092,168.0672269
3.682,-0.099083835,168.0672269
3.683,-0.092062016,168.0672269
3.684,-0.082167634,168.0672269
3.685,-0.070996558,168.0672269
3.686,-0.059506308,168.0672269
3.687,-0.048654406,168.0672269
3.688,-0.039717545,168.0672269
3.689,-0.033014899,168.0672269
3.69,-0.029823163,168.0672269
3.691,-0.030142337,168.0672269
3.692,-0.03397242,168.0672269
3.693,-0.040994239,168.0672269
3.694,-0.050250274,168.0672269
3.695,-0.061102176,168.0672269
3.696,-0.071634905,168.0672269
3.697,-0.081848461,168.0672269
3.698,-0.089827801,168.0672269
3.699,-0.095572926,168.0672269
3.7,-0.097807141,168.0672269
3.701,-0.096530447,168.0672269
3.702,-0.091423669,168.0672269
3.703,-0.083444329,168.0672269
3.704,-0.073230773,168.0672269
3.705,-0.06142135,168.0672269
3.706,-0.049292753,168.0672269
3.707,-0.03844085,168.0672269
3.708,-0.02950399,168.0672269
3.709,-0.023439691,168.0672269
3.71,-0.020886302,168.0672269
3.711,-0.022162997,168.0672269
3.712,-0.026950601,168.0672269
3.713,-0.034610767,168.0672269
3.714,-0.044505149,168.0672269
3.715,-0.055676225,168.0672269
3.716,-0.066528128,168.0672269
3.717,-0.076422509,168.0672269
3.718,-0.08440185,168.0672269
3.719,-0.089508627,168.0672269
3.72,-0.091423669,168.0672269
3.721,-0.089508627,168.0672269
3.722,-0.083763502,168.0672269
3.723,-0.075145815,168.0672269
3.724,-0.064613086,168.0672269
3.725,-0.052484489,168.0672269
3.726,-0.040675066,168.0672269
3.727,-0.029823163,168.0672269
3.728,-0.021205476,168.0672269
3.729,-0.015460351,168.0672269
3.73,-0.013226136,168.0672269
3.731,-0.014822004,168.0672269
3.732,-0.019609608,168.0672269
3.733,-0.027269774,168.0672269
3.734,-0.037164156,168.0672269
3.735,-0.048016059,168.0672269
3.736,-0.058548788,168.0672269
3.737,-0.068123996,168.0672269
3.738,-0.075784162,168.0672269
3.739,-0.080252593,168.0672269
3.74,-0.081210114,168.0672269
3.741,-0.078656725,168.0672269
3.742,-0.072273253,168.0672269
3.743,-0.063336392,168.0672269
3.744,-0.052484489,168.0672269
3.745,-0.040675066,168.0672269
3.746,-0.029184816,168.0672269
3.747,-0.018971261,168.0672269
3.748,-0.01099192,168.0672269
3.749,-0.00652349,168.0672269
3.75,-0.005246796,168.0672269
3.751,-0.007481011,168.0672269
3.752,-0.013226136,168.0672269
3.753,-0.021205476,168.0672269
3.754,-0.031419031,168.0672269
3.755,-0.04195176,168.0672269
3.756,-0.052165315,168.0672269
3.757,-0.061102176,168.0672269
3.758,-0.067485649,168.0672269
3.759,-0.070996558,168.0672269
3.76,-0.070677385,168.0672269
3.761,-0.066847301,168.0672269
3.762,-0.059187135,168.0672269
3.763,-0.048973579,168.0672269
3.764,-0.036844982,168.0672269
3.765,-0.024078038,168.0672269
3.766,-0.011630268,168.0672269
3.767,-0.001097539,168.0672269
3.768,0.007200975,168.0672269
3.769,0.011669405,168.0672269
3.77,0.013265273,168.0672269
3.771,0.011031058,168.0672269
3.772,0.005924281,168.0672269
3.773,-0.00205506,168.0672269
3.774,-0.011630268,168.0672269
3.775,-0.022162997,168.0672269
3.776,-0.031738205,168.0672269
3.777,-0.040036719,168.0672269
3.778,-0.045781843,168.0672269
3.779,-0.048335232,168.0672269
3.78,-0.047377711,168.0672269
3.781,-0.042909281,168.0672269
3.782,-0.035249114,168.0672269
3.783,-0.025035559,168.0672269
3.784,-0.013226136,168.0672269
3.785,-0.000778365,168.0672269
3.786,0.010392711,168.0672269
3.787,0.020606266,168.0672269
3.788,0.027947259,168.0672269
3.789,0.03241569,168.0672269
3.79,0.033373211,168.0672269
3.791,0.030819822,168.0672269
3.792,0.025074697,168.0672269
3.793,0.017095357,168.0672269
3.794,0.008158496,168.0672269
3.795,-0.000778365,168.0672269
3.796,-0.009076879,168.0672269
3.797,-0.015141177,168.0672269
3.798,-0.018652087,168.0672269
3.799,-0.018971261,168.0672269
3.8,-0.015141177,168.0672269
3.801,-0.008119358,168.0672269
3.802,0.002094197,168.0672269
3.803,0.014861142,168.0672269
3.804,0.02890478,168.0672269
3.805,0.043586766,168.0672269
3.806,0.056992057,168.0672269
3.807,0.068482307,168.0672269
3.808,0.077099994,168.0672269
3.809,0.082206772,168.0672269
3.81,0.083483467,168.0672269
3.811,0.080930078,168.0672269
3.812,0.075504126,168.0672269
3.813,0.06784396,168.0672269
3.814,0.058907099,168.0672269
3.815,0.049651064,168.0672269
3.816,0.041671724,168.0672269
3.817,0.035288252,168.0672269
3.818,0.031458169,168.0672269
3.819,0.031138995,168.0672269
3.82,0.034649905,168.0672269
3.821,0.041352551,168.0672269
3.822,0.051246932,168.0672269
3.823,0.063375529,168.0672269
3.824,0.076461647,168.0672269
3.825,0.089547765,168.0672269
3.826,0.101357188,168.0672269
3.827,0.11125157,168.0672269
3.828,0.117954216,168.0672269
3.829,0.121145952,168.0672269
3.83,0.120826778,168.0672269
3.831,0.116996695,168.0672269
3.832,0.109974876,168.0672269
3.833,0.101038015,168.0672269
3.834,0.091143633,168.0672269
3.835,0.080930078,168.0672269
3.836,0.071993217,168.0672269
3.837,0.064652224,168.0672269
3.838,0.060502967,168.0672269
3.839,0.059545446,168.0672269
3.84,0.062098835,168.0672269
3.841,0.06784396,168.0672269
3.842,0.076780821,168.0672269
3.843,0.087632723,168.0672269
3.844,0.099122973,168.0672269
3.845,0.110613223,168.0672269
3.846,0.120507605,168.0672269
3.847,0.127848598,168.0672269
3.848,0.132317028,168.0672269
3.849,0.132955375,168.0672269
3.85,0.129763639,168.0672269
3.851,0.123380167,168.0672269
3.852,0.114124133,168.0672269
3.853,0.102953056,168.0672269
3.854,0.090824459,168.0672269
3.855,0.079015036,168.0672269
3.856,0.068163134,168.0672269
3.857,0.05986462,168.0672269
3.858,0.054119495,168.0672269
3.859,0.05188528,168.0672269
3.86,0.053161974,168.0672269
3.861,0.057630405,168.0672269
3.862,0.064971397,168.0672269
3.863,0.073908258,168.0672269
3.864,0.083483467,168.0672269
3.865,0.092420327,168.0672269
3.866,0.100080494,168.0672269
3.867,0.104868098,168.0672269
3.868,0.106144792,168.0672269
3.869,0.103910577,168.0672269
3.87,0.097846279,168.0672269
3.871,0.088590244,168.0672269
3.872,0.076461647,168.0672269
3.873,0.062418009,168.0672269
3.874,0.047736023,168.0672269
3.875,0.033692384,168.0672269
3.876,0.02092544,168.0672269
3.877,0.010711885,168.0672269
3.878,0.004009239,168.0672269
3.879,0.000179156,168.0672269
3.88,0.000179156,168.0672269
3.881,0.003690065,168.0672269
3.882,0.009116017,168.0672269
3.883,0.016776183,168.0672269
3.884,0.024755523,168.0672269
3.885,0.032096516,168.0672269
3.886,0.037203294,168.0672269
3.887,0.039756683,168.0672269
3.888,0.039118335,168.0672269
3.889,0.034969079,168.0672269
3.89,0.027308912,168.0672269
3.891,0.01645701,168.0672269
3.892,0.003690065,168.0672269
3.893,-0.01099192,178.5714286
3.894,-0.02599308,178.5714286
3.895,-0.040355892,178.5714286
3.896,-0.052803663,178.5714286
3.897,-0.063017218,178.5714286
3.898,-0.06940069,178.5714286
3.899,-0.072273253,178.5714286
3.9,-0.071315732,178.5714286
3.901,-0.067166475,178.5714286
3.902,-0.060463829,178.5714286
3.903,-0.052165315,178.5714286
3.904,-0.043547628,178.5714286
3.905,-0.035887462,178.5714286
3.906,-0.029823163,178.5714286
3.907,-0.026950601,178.5714286
3.908,-0.027269774,178.5714286
3.909,-0.031099858,178.5714286
3.91,-0.038760024,178.5714286
3.911,-0.049292753,178.5714286
3.912,-0.062059697,178.5714286
3.913,-0.076422509,178.5714286
3.914,-0.090785322,178.5714286
3.915,-0.104190613,178.5714286
3.916,-0.115361689,178.5714286
3.917,-0.123979377,178.5714286
3.918,-0.128766981,178.5714286
3.919,-0.129405328,178.5714286
3.92,-0.126851939,178.5714286
3.921,-0.120787641,178.5714286
3.922,-0.112489127,178.5714286
3.923,-0.102594745,178.5714286
3.924,-0.092700363,178.5714286
3.925,-0.083763502,178.5714286
3.926,-0.076422509,178.5714286
3.927,-0.071954079,178.5714286
3.928,-0.070677385,178.5714286
3.929,-0.0729116,178.5714286
3.93,-0.078656725,178.5714286
3.931,-0.087274412,178.5714286
3.932,-0.098126315,178.5714286
3.933,-0.109616564,178.5714286
3.934,-0.121425988,178.5714286
3.935,-0.131958717,178.5714286
3.936,-0.140576404,178.5714286
3.937,-0.146002355,178.5714286
3.938,-0.148236571,178.5714286
3.939,-0.146640703,178.5714286
3.94,-0.141533925,178.5714286
3.941,-0.133554585,178.5714286
3.942,-0.123660203,178.5714286
3.943,-0.112489127,178.5714286
3.944,-0.101956398,178.5714286
3.945,-0.09238119,178.5714286
3.946,-0.085040197,178.5714286
3.947,-0.08089094,178.5714286
3.948,-0.079933419,178.5714286
3.949,-0.083125155,178.5714286
3.95,-0.089508627,178.5714286
3.951,-0.098764662,178.5714286
3.952,-0.109616564,178.5714286
3.953,-0.121745161,178.5714286
3.954,-0.133235411,178.5714286
3.955,-0.143448966,178.5714286
3.956,-0.15174748,178.5714286
3.957,-0.156535084,178.5714286
3.958,-0.157811779,178.5714286
3.959,-0.155577563,178.5714286
3.96,-0.149513265,178.5714286
3.961,-0.140576404,178.5714286
3.962,-0.129724501,178.5714286
3.963,-0.117915078,178.5714286
3.964,-0.106424828,178.5714286
3.965,-0.096530447,178.5714286
3.966,-0.08887028,178.5714286
3.967,-0.08440185,178.5714286
3.968,-0.083763502,178.5714286
3.969,-0.086316891,178.5714286
3.97,-0.09238119,178.5714286
3.971,-0.101318051,178.5714286
3.972,-0.111531606,178.5714286
3.973,-0.122702682,178.5714286
3.974,-0.133554585,178.5714286
3.975,-0.142810619,178.5714286
3.976,-0.149832439,178.5714286
3.977,-0.153662522,178.5714286
3.978,-0.153662522,178.5714286
3.979,-0.150470786,178.5714286
3.98,-0.14376814,178.5714286
3.981,-0.134512106,178.5714286
3.982,-0.123660203,178.5714286
3.983,-0.11185078,178.5714286
3.984,-0.100998877,178.5714286
3.985,-0.091423669,178.5714286
3.986,-0.08440185,178.5714286
3.987,-0.08089094,178.5714286
3.988,-0.08089094,178.5714286
3.989,-0.08440185,178.5714286
3.99,-0.091104495,178.5714286
3.991,-0.10036053,178.5714286
3.992,-0.110893259,178.5714286
3.993,-0.121745161,178.5714286
3.994,-0.13227789,178.5714286
3.995,-0.140895578,178.5714286
3.996,-0.146640703,178.5714286
3.997,-0.149513265,178.5714286
3.998,-0.148555744,178.5714286
3.999,-0.14376814,178.5714286
4,-0.136107974,178.5714286
4.001,-0.125894418,178.5714286
4.002,-0.114084995,178.5714286
4.003,-0.101637224,178.5714286
4.004,-0.090466148,178.5714286
4.005,-0.08089094,178.5714286
4.006,-0.074188294,178.5714286
4.007,-0.070996558,178.5714286
4.008,-0.071315732,178.5714286
4.009,-0.075464989,178.5714286
4.01,-0.082805982,178.5714286
4.011,-0.092700363,178.5714286
4.012,-0.103871439,178.5714286
4.013,-0.115361689,178.5714286
4.014,-0.125894418,178.5714286
4.015,-0.134512106,178.5714286
4.016,-0.140576404,178.5714286
4.017,-0.142810619,178.5714286
4.018,-0.141533925,178.5714286
4.019,-0.136427147,178.5714286
4.02,-0.128128633,178.5714286
4.021,-0.117276731,178.5714286
4.022,-0.105467307,178.5714286
4.023,-0.093019537,178.5714286
4.024,-0.081848461,178.5714286
4.025,-0.072273253,178.5714286
4.026,-0.065889781,178.5714286
4.027,-0.062698044,178.5714286
4.028,-0.063336392,178.5714286
4.029,-0.067485649,178.5714286
4.03,-0.074507468,178.5714286
4.031,-0.084082676,178.5714286
4.032,-0.094615405,178.5714286
4.033,-0.105467307,178.5714286
4.034,-0.115361689,178.5714286
4.035,-0.123341029,178.5714286
4.036,-0.128447807,178.5714286
4.037,-0.130362849,178.5714286
4.038,-0.128766981,178.5714286
4.039,-0.123341029,178.5714286
4.04,-0.115361689,178.5714286
4.041,-0.10482896,178.5714286
4.042,-0.093338711,178.5714286
4.043,-0.081529287,178.5714286
4.044,-0.071315732,178.5714286
4.045,-0.063017218,178.5714286
4.046,-0.05791044,178.5714286
4.047,-0.056314572,178.5714286
4.048,-0.058229614,178.5714286
4.049,-0.063336392,178.5714286
4.05,-0.071634905,178.5714286
4.051,-0.081848461,178.5714286
4.052,-0.092700363,178.5714286
4.053,-0.103552266,178.5714286
4.054,-0.113446648,178.5714286
4.055,-0.121106814,178.5714286
4.056,-0.125894418,178.5714286
4.057,-0.127171113,178.5714286
4.058,-0.124617724,178.5714286
4.059,-0.118872599,178.5714286
4.06,-0.110254912,178.5714286
4.061,-0.099722183,178.5714286
4.062,-0.088231933,178.5714286
4.063,-0.077060857,178.5714286
4.064,-0.067485649,178.5714286
4.065,-0.060144656,178.5714286
4.066,-0.055676225,178.5714286
4.067,-0.055037878,178.5714286
4.068,-0.058229614,178.5714286
4.069,-0.064613086,178.5714286
4.07,-0.073869121,178.5714286
4.071,-0.084721023,178.5714286
4.072,-0.096530447,178.5714286
4.073,-0.107701523,178.5714286
4.074,-0.117595904,178.5714286
4.075,-0.124936897,178.5714286
4.076,-0.129086154,178.5714286
4.077,-0.129724501,178.5714286
4.078,-0.126851939,178.5714286
4.079,-0.120468467,178.5714286
4.08,-0.111531606,178.5714286
4.081,-0.10036053,178.5714286
4.082,-0.08887028,178.5714286
4.083,-0.07738003,178.5714286
4.084,-0.067804822,178.5714286
4.085,-0.060783003,178.5714286
4.086,-0.05695292,178.5714286
4.087,-0.056633746,178.5714286
4.088,-0.060144656,178.5714286
4.089,-0.066847301,178.5714286
4.09,-0.076103336,178.5714286
4.091,-0.086955238,178.5714286
4.092,-0.098445488,178.5714286
4.093,-0.109297391,178.5714286
4.094,-0.118234252,178.5714286
4.095,-0.124936897,178.5714286
4.096,-0.128766981,178.5714286
4.097,-0.128766981,178.5714286
4.098,-0.124936897,178.5714286
4.099,-0.117915078,178.5714286
4.1,-0.108659044,178.5714286
4.101,-0.097487967,178.5714286
4.102,-0.086316891,178.5714286
4.103,-0.076103336,178.5714286
4.104,-0.067485649,178.5714286
4.105,-0.061740524,178.5714286
4.106,-0.059187135,178.5714286
4.107,-0.060463829,178.5714286
4.108,-0.06493226,178.5714286
4.109,-0.072592426,178.5714286
4.11,-0.082805982,178.5714286
4.111,-0.094296231,178.5714286
4.112,-0.106105655,178.5714286
4.113,-0.117276731,178.5714286
4.114,-0.126532765,178.5714286
4.115,-0.133235411,178.5714286
4.116,-0.136427147,178.5714286
4.117,-0.136107974,178.5714286
4.118,-0.131958717,178.5714286
4.119,-0.124617724,178.5714286
4.12,-0.114723342,178.5714286
4.121,-0.103552266,178.5714286
4.122,-0.09238119,178.5714286
4.123,-0.081848461,178.5714286
4.124,-0.073230773,178.5714286
4.125,-0.067485649,178.5714286
4.126,-0.065251433,178.5714286
4.127,-0.066528128,178.5714286
4.128,-0.071634905,178.5714286
4.129,-0.079614246,178.5714286
4.13,-0.089508627,178.5714286
4.131,-0.100998877,178.5714286
4.132,-0.112489127,178.5714286
4.133,-0.122702682,178.5714286
4.134,-0.131320369,178.5714286
4.135,-0.137065494,178.5714286
4.136,-0.138980536,178.5714286
4.137,-0.137384668,178.5714286
4.138,-0.131958717,178.5714286
4.139,-0.123660203,178.5714286
4.14,-0.1128083,178.5714286
4.141,-0.100998877,178.5714286
4.142,-0.089189454,178.5714286
4.143,-0.078656725,178.5714286
4.144,-0.070358211,178.5714286
4.145,-0.064613086,178.5714286
4.146,-0.062698044,178.5714286
4.147,-0.064613086,178.5714286
4.148,-0.069719864,178.5714286
4.149,-0.077699204,178.5714286
4.15,-0.087912759,178.5714286
4.151,-0.099083835,178.5714286
4.152,-0.110254912,178.5714286
4.153,-0.120468467,178.5714286
4.154,-0.128447807,178.5714286
4.155,-0.133554585,178.5714286
4.156,-0.134831279,178.5714286
4.157,-0.132916238,178.5714286
4.158,-0.127171113,178.5714286
4.159,-0.118553425,178.5714286
4.16,-0.10833987,178.5714286
4.161,-0.09684962,178.5714286
4.162,-0.085997718,178.5714286
4.163,-0.076741683,178.5714286
4.164,-0.06940069,178.5714286
4.165,-0.065251433,178.5714286
4.166,-0.064613086,178.5714286
4.167,-0.067485649,178.5714286
4.168,-0.073549947,178.5714286
4.169,-0.082486808,178.5714286
4.17,-0.093019537,178.5714286
4.171,-0.10482896,178.5714286
4.172,-0.116000036,178.5714286
4.173,-0.125894418,178.5714286
4.174,-0.133554585,178.5714286
4.175,-0.138023015,178.5714286
4.176,-0.138980536,178.5714286
4.177,-0.136107974,178.5714286
4.178,-0.129724501,178.5714286
4.179,-0.120787641,178.5714286
4.18,-0.109616564,178.5714286
4.181,-0.098126315,178.5714286
4.182,-0.086636065,178.5714286
4.183,-0.076741683,178.5714286
4.184,-0.06940069,178.5714286
4.185,-0.065251433,178.5714286
4.186,-0.064293912,178.5714286
4.187,-0.067485649,178.5714286
4.188,-0.073549947,178.5714286
4.189,-0.082167634,178.041543
4.19,-0.092700363,178.041543
4.191,-0.103552266,178.041543
4.192,-0.113765821,178.041543
4.193,-0.122702682,178.041543
4.194,-0.129086154,178.041543
4.195,-0.13227789,178.041543
4.196,-0.131639543,178.041543
4.197,-0.12780946,178.041543
4.198,-0.120468467,178.041543
4.199,-0.110574085,178.041543
4.2,-0.099403009,178.041543
4.201,-0.087593586,178.041543
4.202,-0.076741683,178.041543
4.203,-0.067804822,178.041543
4.204,-0.06142135,178.041543
4.205,-0.058229614,178.041543
4.206,-0.059187135,178.041543
4.207,-0.063336392,178.041543
4.208,-0.070996558,178.041543
4.209,-0.08089094,178.041543
4.21,-0.09238119,178.041543
4.211,-0.103871439,178.041543
4.212,-0.115042516,178.041543
4.213,-0.123979377,178.041543
4.214,-0.130682022,178.041543
4.215,-0.133873758,178.041543
4.216,-0.133554585,178.041543
4.217,-0.129405328,178.041543
4.218,-0.122383509,178.041543
4.219,-0.1128083,178.041543
4.22,-0.101637224,178.041543
4.221,-0.090146974,178.041543
4.222,-0.079295072,178.041543
4.223,-0.070358211,178.041543
4.224,-0.063974739,178.041543
4.225,-0.061102176,178.041543
4.226,-0.062059697,178.041543
4.227,-0.066208954,178.041543
4.228,-0.073549947,178.041543
4.229,-0.083125155,178.041543
4.23,-0.093977058,178.041543
4.231,-0.105467307,178.041543
4.232,-0.115680863,178.041543
4.233,-0.123979377,178.041543
4.234,-0.129724501,178.041543
4.235,-0.131958717,178.041543
4.236,-0.130682022,178.041543
4.237,-0.125894418,178.041543
4.238,-0.117915078,178.041543
4.239,-0.108020696,178.041543
4.24,-0.09684962,178.041543
4.241,-0.085678544,178.041543
4.242,-0.075464989,178.041543
4.243,-0.067485649,178.041543
4.244,-0.062059697,178.041543
4.245,-0.060144656,178.041543
4.246,-0.062059697,178.041543
4.247,-0.067166475,178.041543
4.248,-0.075145815,178.041543
4.249,-0.085040197,178.041543
4.25,-0.096211273,178.041543
4.251,-0.107701523,178.041543
4.252,-0.117595904,178.041543
4.253,-0.125575245,178.041543
4.254,-0.130682022,178.041543
4.255,-0.131958717,178.041543
4.256,-0.129724501,178.041543
4.257,-0.123979377,178.041543
4.258,-0.115361689,178.041543
4.259,-0.104509787,178.041543
4.26,-0.093019537,178.041543
4.261,-0.081529287,178.041543
4.262,-0.071315732,178.041543
4.263,-0.063017218,178.041543
4.264,-0.058229614,178.041543
4.265,-0.056633746,178.041543
4.266,-0.058867961,178.041543
4.267,-0.064293912,178.041543
4.268,-0.072592426,178.041543
4.269,-0.082486808,178.041543
4.27,-0.093657884,178.041543
4.271,-0.104190613,178.041543
4.272,-0.113446648,178.041543
4.273,-0.120787641,178.041543
4.274,-0.124936897,178.041543
4.275,-0.125575245,178.041543
4.276,-0.123021856,178.041543
4.277,-0.116638384,178.041543
4.278,-0.107701523,178.041543
4.279,-0.097168794,178.041543
4.28,-0.085678544,178.041543
4.281,-0.074507468,178.041543
4.282,-0.065251433,178.041543
4.283,-0.05791044,178.041543
4.284,-0.054080357,178.041543
4.285,-0.054080357,178.041543
4.286,-0.057272093,178.041543
4.287,-0.063974739,178.041543
4.288,-0.073230773,178.041543
4.289,-0.08440185,178.041543
4.29,-0.095892099,178.041543
4.291,-0.107063176,178.041543
4.292,-0.116638384,178.041543
4.293,-0.123660203,178.041543
4.294,-0.127490286,178.041543
4.295,-0.12780946,178.041543
4.296,-0.124617724,178.041543
4.297,-0.117595904,178.041543
