Time,"CH 1, ECG","CH40, Heart Rate"
sec,mV,BPM
0,0.006591623,0
0.001,0.006591623,0
0.002,0.006591623,0
0.003,0.005953179,0
0.004,0.005633958,0
0.005,0.005953179,0
0.006,0.007549287,0
0.007,0.011060725,0
0.008,0.017125936,0
0.009,0.026064141,0
0.01,0.037236897,0
0.011,0.050324983,0
0.012,0.065328399,0
0.013,0.081289479,0
0.014,0.097569781,0
0.015,0.11321164,0
0.016,0.127576613,0
0.017,0.140026255,0
0.018,0.149602904,0
0.019,0.156306557,0
0.02,0.159817995,0
0.021,0.159817995,0
0.022,0.155987336,0
0.023,0.14896446,0
0.024,0.139068591,0
0.025,0.126938169,0
0.026,0.113530862,0
0.027,0.099804333,0
0.028,0.086397025,0
0.029,0.074905047,0
0.03,0.06564762,0
0.031,0.05958241,0
0.032,0.057028637,0
0.033,0.057986302,0
0.034,0.062455404,0
0.035,0.070116723,0
0.036,0.079693371,0
0.037,0.090546906,0
0.038,0.101719662,0
0.039,0.111934754,0
0.04,0.120872959,0
0.041,0.127257391,0
0.042,0.130449607,0
0.043,0.130768829,0
0.044,0.127576613,0
0.045,0.121830624,0
0.046,0.113850083,0
0.047,0.104273435,0
0.048,0.094696787,0
0.049,0.08543936,0
0.05,0.078097263,0
0.051,0.072989717,0
0.052,0.071074388,0
0.053,0.072032053,0
0.054,0.075862712,0
0.055,0.082247144,0
0.056,0.090227684,0
0.057,0.099485111,0
0.058,0.108742538,0
0.059,0.117361521,0
0.06,0.124384397,0
0.061,0.129172721,0
0.062,0.13108805,0
0.063,0.129811164,0
0.064,0.125980505,0
0.065,0.119915294,0
0.066,0.112253975,0
0.067,0.103634992,0
0.068,0.095654452,0
0.069,0.088312355,0
0.07,0.083204809,0
0.071,0.080331814,0
0.072,0.080651036,0
0.073,0.083843252,0
0.074,0.089908463,0
0.075,0.098527446,0
0.076,0.109061759,0
0.077,0.120234516,0
0.078,0.131407272,0
0.079,0.141303142,0
0.08,0.149602904,0
0.081,0.154710449,0
0.082,0.156945001,0
0.083,0.155987336,0
0.084,0.152156677,0
0.085,0.145772244,0
0.086,0.138110926,0
0.087,0.129491942,0
0.088,0.12119218,0
0.089,0.113850083,0
0.09,0.108742538,0
0.091,0.105869543,0
0.092,0.106188765,0
0.093,0.109380981,0
0.094,0.115446191,0
0.095,0.123745953,0
0.096,0.133322602,0
0.097,0.143856915,0
0.098,0.154072006,0
0.099,0.163329433,0
0.1,0.17067153,0
0.101,0.175140632,0
0.102,0.177055962,0
0.103,0.176098297,0
0.104,0.17258686,0
0.105,0.166840871,0
0.106,0.160137217,0
0.107,0.15279512,0
0.108,0.145772244,0
0.109,0.140026255,0
0.11,0.136834039,0
0.111,0.136195596,0
0.112,0.138749369,0
0.113,0.144176136,0
0.114,0.152475898,0
0.115,0.163010211,0
0.116,0.174821411,0
0.117,0.186951832,0
0.118,0.198763032,0
0.119,0.208978123,0
0.12,0.217277885,0
0.121,0.222704652,0
0.122,0.224939203,0
0.123,0.224619982,0
0.124,0.221746987,0
0.125,0.216958663,0
0.126,0.211212674,0
0.127,0.205147464,0
0.128,0.199720696,0
0.129,0.195570815,0
0.13,0.193336264,0
0.131,0.193655486,0
0.132,0.196847702,0
0.133,0.202274469,0
0.134,0.210255009,0
0.135,0.219512436,0
0.136,0.229089084,0
0.137,0.238665733,0
0.138,0.246646273,0
0.139,0.253030705,0
0.14,0.256542143,0
0.141,0.256861364,0
0.142,0.253669148,0
0.143,0.247603938,0
0.144,0.238984954,0
0.145,0.228450641,0
0.146,0.216639442,0
0.147,0.204828242,0
0.148,0.193655486,0
0.149,0.184078837,0
0.15,0.177055962,0
0.151,0.17258686,0
0.152,0.17067153,0
0.153,0.171948416,0
0.154,0.175140632,0
0.155,0.179609735,0
0.156,0.185036502,0
0.157,0.190144048,0
0.158,0.193974707,0
0.159,0.195890037,0
0.16,0.194932372,0
0.161,0.191101713,0
0.162,0.184078837,0
0.163,0.174182968,0
0.164,0.161733325,0
0.165,0.148006796,0
0.166,0.133322602,0
0.167,0.118957629,0
0.168,0.1052311,0
0.169,0.093739122,0
0.17,0.084481695,0
0.171,0.078416485,0
0.172,0.075224269,0
0.173,0.074905047,0
0.174,0.076820377,0
0.175,0.080331814,0
0.176,0.084162474,0
0.177,0.087993133,0
0.178,0.090546906,0
0.179,0.090866128,0
0.18,0.088631576,0
0.181,0.08352403,0
0.182,0.07554349,0
0.183,0.064689956,0
0.184,0.052240313,0
0.185,0.038513784,0
0.186,0.024468033,0
0.187,0.011060725,0
0.188,-0.000750474,0
0.189,-0.010327123,0
0.19,-0.017349998,0
0.191,-0.021499879,0
0.192,-0.022457544,0
0.193,-0.020861436,0
0.194,-0.017349998,0
0.195,-0.012242452,0
0.196,-0.006815685,0
0.197,-0.002346582,0
0.198,0.000845634,0
0.199,0.001803298,0
0.2,0.00020719,0
0.201,-0.004581134,0
0.202,-0.011923231,0
0.203,-0.022138322,0
0.204,-0.033949522,0
0.205,-0.047037608,0
0.206,-0.060125694,0
0.207,-0.072256115,0
0.208,-0.082790428,0
0.209,-0.09109019,0
0.21,-0.096516957,0
0.211,-0.098432287,0
0.212,-0.097793844,0
0.213,-0.093963184,0
0.214,-0.088536417,0
0.215,-0.081832763,0
0.216,-0.074809888,0
0.217,-0.068744677,0
0.218,-0.063637131,0
0.219,-0.061083359,0
0.22,-0.061083359,0
0.221,-0.063956353,0
0.222,-0.069063899,0
0.223,-0.076405996,0
0.224,-0.085024979,0
0.225,-0.094601628,0
0.226,-0.103859054,0
0.227,-0.111839594,0
0.228,-0.118224027,0
0.229,-0.122054686,0
0.23,-0.123012351,0
0.231,-0.1207778,0
0.232,-0.115989475,0
0.233,-0.108647378,0
0.234,-0.100028395,0
0.235,-0.090770968,0
0.236,-0.081832763,0
0.237,-0.074171445,0
0.238,-0.068744677,0
0.239,-0.066190904,0
0.24,-0.066510126,0
0.241,-0.069702342,0
0.242,-0.075767553,0
0.243,-0.083748093,0
0.244,-0.09300552,0
0.245,-0.102901389,0
0.246,-0.112478038,0
0.247,-0.1207778,0
0.248,-0.12684301,0
0.249,-0.130354448,0
0.25,-0.130673669,0
0.251,-0.127481453,0
0.252,-0.121735464,0
0.253,-0.113435703,0
0.254,-0.103539833,0
0.255,-0.093324741,0
0.256,-0.083428871,0
0.257,-0.074490666,0
0.258,-0.067787012,0
0.259,-0.063637131,0
0.26,-0.062679467,0
0.261,-0.064914018,0
0.262,-0.070021564,0
0.263,-0.077363661,0
0.264,-0.086301866,0
0.265,-0.095559292,0
0.266,-0.104816719,0
0.267,-0.113116481,0
0.268,-0.119181692,0
0.269,-0.122693129,0
0.27,-0.123331572,0
0.271,-0.121416243,0
0.272,-0.116627919,0
0.273,-0.110243486,0
0.274,-0.102582168,0
0.275,-0.094601628,0
0.276,-0.087578752,0
0.277,-0.081832763,0
0.278,-0.078321326,0
0.279,-0.077044439,0
0.28,-0.078959769,0
0.281,-0.08310965,0
0.282,-0.089813303,0
0.283,-0.098432287,0
0.284,-0.108008935,0
0.285,-0.117585583,0
0.286,-0.126523789,0
0.287,-0.133546664,0
0.288,-0.138334988,0
0.289,-0.140888761,0
0.29,-0.140250318,0
0.291,-0.137377323,0
0.292,-0.131950556,0
0.293,-0.125246902,0
0.294,-0.117266362,0
0.295,-0.109605043,0
0.296,-0.102901389,0
0.297,-0.098113065,0
0.298,-0.095878514,0
0.299,-0.096197736,0
0.3,-0.099709173,0
0.301,-0.106093606,0
0.302,-0.114712589,0
0.303,-0.124608459,0
0.304,-0.135461994,0
0.305,-0.145996307,0
0.306,-0.155572955,0
0.307,-0.163234274,0
0.308,-0.168341819,0
0.309,-0.170576371,0
0.31,-0.169937927,0
0.311,-0.166107268,0
0.312,-0.160042058,0
0.313,-0.152699961,0
0.314,-0.144400199,0
0.315,-0.136419658,0
0.316,-0.129396783,0
0.317,-0.124608459,0
0.318,-0.122373908,0
0.319,-0.123012351,0
0.32,-0.12684301,0
0.321,-0.133227442,0
0.322,-0.141527204,0
0.323,-0.151423074,0
0.324,-0.161638166,0
0.325,-0.171853257,0
0.326,-0.180791462,0
0.327,-0.187814338,0
0.328,-0.191964218,0
0.329,-0.193241105,0
0.33,-0.191964218,0
0.331,-0.187814338,0
0.332,-0.181429905,0
0.333,-0.173768587,0
0.334,-0.165468825,0
0.335,-0.157807506,0
0.336,-0.151103852,0
0.337,-0.146315528,0
0.338,-0.144400199,0
0.339,-0.145038642,0
0.34,-0.148869301,0
0.341,-0.154934512,0
0.342,-0.162915052,0
0.343,-0.172172479,0
0.344,-0.181749127,0
0.345,-0.19036811,0
0.346,-0.197390986,0
0.347,-0.20217931,0
0.348,-0.204413861,0
0.349,-0.203775418,0
0.35,-0.199944759,0
0.351,-0.193879548,0
0.352,-0.185899008,0
0.353,-0.176960803,0
0.354,-0.168022598,0
0.355,-0.159403614,0
0.356,-0.152699961,0
0.357,-0.147911636,0
0.358,-0.146315528,0
0.359,-0.147273193,0
0.36,-0.151423074,0
0.361,-0.157488285,0
0.362,-0.165788046,0
0.363,-0.17440703,0
0.364,-0.183026013,0
0.365,-0.19036811,0
0.366,-0.195794878,0
0.367,-0.198348651,0
0.368,-0.198029429,0
0.369,-0.193879548,0
0.37,-0.187175894,0
0.371,-0.177599246,0
0.372,-0.16642649,0
0.373,-0.154296069,0
0.374,-0.142165647,0
0.375,-0.130673669,0
0.376,-0.121416243,0
0.377,-0.114393367,0
0.378,-0.110243486,0
0.379,-0.108647378,0
0.38,-0.110243486,0
0.381,-0.113754924,0
0.382,-0.11886247,0
0.383,-0.12492768,0
0.384,-0.130673669,0
0.385,-0.135461994,0
0.386,-0.138015766,0
0.387,-0.138334988,0
0.388,-0.135461994,0
0.389,-0.129077561,0
0.39,-0.119820135,0
0.391,-0.108008935,0
0.392,-0.094601628,0
0.393,-0.080555877,0
0.394,-0.066829348,0
0.395,-0.055018148,0
0.396,-0.0454415,0
0.397,-0.039057068,0
0.398,-0.036503295,0
0.399,-0.037141738,0
0.4,-0.041291619,0
0.401,-0.048314494,0
0.402,-0.057571921,0
0.403,-0.068106234,0
0.404,-0.078959769,0
0.405,-0.089494082,0
0.406,-0.098113065,0
0.407,-0.104816719,0
0.408,-0.1089666,0
0.409,-0.11088193,0
0.41,-0.110243486,0
0.411,-0.108008935,0
0.412,-0.104497497,0
0.413,-0.10098606,0
0.414,-0.098113065,0
0.415,-0.096516957,0
0.416,-0.097793844,0
0.417,-0.101624503,0
0.418,-0.1089666,0
0.419,-0.119181692,0
0.42,-0.132588999,0
0.421,-0.147911636,0
0.422,-0.164830382,0
0.423,-0.18238757,0
0.424,-0.199625537,0
0.425,-0.215267396,0
0.426,-0.228674704,0
0.427,-0.239209017,0
0.428,-0.246870335,0
0.429,-0.251339438,0
0.43,-0.252616324,0
0.431,-0.251977881,0
0.432,-0.249424108,0
0.433,-0.246231892,0
0.434,-0.243358898,0
0.435,-0.241124346,0
0.436,-0.240485903,0
0.437,-0.242401233,0
0.438,-0.246231892,0
0.439,-0.252616324,0
0.44,-0.261235308,0
0.441,-0.271131178,0
0.442,-0.281665491,0
0.443,-0.292199804,0
0.444,-0.301776452,0
0.445,-0.309437771,0
0.446,-0.314864538,0
0.447,-0.316779868,0
0.448,-0.315822203,0
0.449,-0.311672322,0
0.45,-0.30528789,0
0.451,-0.29730735,0
0.452,-0.288049923,0
0.453,-0.279111718,0
0.454,-0.270811956,0
0.455,-0.264427524,0
0.456,-0.260277643,0
0.457,-0.258362313,0
0.458,-0.2596392,0
0.459,-0.263469859,0
0.46,-0.26953507,0
0.461,-0.277196388,0
0.462,-0.285815372,0
0.463,-0.294434355,0
0.464,-0.302414895,0
0.465,-0.309118549,0
0.466,-0.31326843,0
0.467,-0.314545317,0
0.468,-0.312629987,0
0.469,-0.307522441,0
0.47,-0.300180344,0
0.471,-0.290603696,0
0.472,-0.280069383,0
0.473,-0.269215848,0
0.474,-0.259319978,0
0.475,-0.250700995,0
0.476,-0.243997341,0
0.477,-0.239528238,0
0.478,-0.236655244,0
0.479,-0.234739914,0
0.48,-0.233463028,0
0.481,-0.231228476,0
0.482,-0.227717039,0
0.483,-0.221651828,0
0.484,-0.212713623,0
0.485,-0.199625537,0
0.486,-0.182068349,0
0.487,-0.160042058,0
0.488,-0.133546664,0
0.489,-0.103539833,0
0.49,-0.070979228,0
0.491,-0.036822516,0
0.492,-0.002985026,0
0.493,0.029256357,0
0.494,0.059263188,0
0.495,0.085120139,0
0.496,0.106507986,0
0.497,0.121830624,0
0.498,0.130449607,0
0.499,0.132045715,0
0.5,0.125980505,0
0.501,0.113530862,0
0.502,0.095016008,0
0.503,0.072351274,0
0.504,0.046175102,0
0.505,0.018083601,0
0.506,-0.010646344,0
0.507,-0.040014732,0
0.508,-0.069063899,0
0.509,-0.097793844,0
0.51,-0.125566124,0
0.511,-0.152699961,0
0.512,-0.179195354,0
0.513,-0.206009969,0
0.514,-0.232824584,0
0.515,-0.259958421,0
0.516,-0.287092258,0
0.517,-0.314545317,0
0.518,-0.341359932,0
0.519,-0.36689766,0
0.52,-0.391158503,0
0.521,-0.412865572,0
0.522,-0.432018869,0
0.523,-0.447341506,0
0.524,-0.458833484,0
0.525,-0.465856359,0
0.526,-0.468090911,0
0.527,-0.466175581,0
0.528,-0.46011037,0
0.529,-0.450852944,0
0.53,-0.438722523,0
0.531,-0.424995993,0
0.532,-0.410631021,0
0.533,-0.39658527,0
0.534,-0.384135627,0
0.535,-0.373601314,0
0.536,-0.365939996,0
0.537,-0.361151671,0
0.538,-0.359236342,0
0.539,-0.359555563,0
0.54,-0.361790115,0
0.541,-0.364982331,0
0.542,-0.368174547,0
0.543,-0.370409098,0
0.544,-0.371366763,0
0.545,-0.370089877,0
0.546,-0.366578439,0
0.547,-0.360513228,0
0.548,-0.352213466,0
0.549,-0.342317597,0
0.55,-0.331464062,0
0.551,-0.320929749,0
0.552,-0.310714657,0
0.553,-0.302414895,0
0.554,-0.296030463,0
0.555,-0.292519025,0
0.556,-0.292199804,0
0.557,-0.294753577,0
0.558,-0.300499566,0
0.559,-0.308160884,0
0.56,-0.317099089,0
0.561,-0.326675738,0
0.562,-0.335933164,0
0.563,-0.343594483,0
0.564,-0.34902125,0
0.565,-0.351575023,0
0.566,-0.351255802,0
0.567,-0.347744364,0
0.568,-0.341679153,0
0.569,-0.333379391,0
0.57,-0.323802743,0
0.571,-0.313906873,0
0.572,-0.304330225,0
0.573,-0.296668906,0
0.574,-0.290922917,0
0.575,-0.287730701,0
0.576,-0.28741148,0
0.577,-0.289646031,0
0.578,-0.294753577,0
0.579,-0.301457231,0
0.58,-0.309437771,0
0.581,-0.317418311,0
0.582,-0.32507963,0
0.583,-0.331464062,0
0.584,-0.335294721,0
0.585,-0.336571608,0
0.586,-0.334656278,0
0.587,-0.329867954,0
0.588,-0.322206635,0
0.589,-0.312949208,0
0.59,-0.302414895,0
0.591,-0.291880582,0
0.592,-0.281984712,0
0.593,-0.274004172,0
0.594,-0.268577405,0
0.595,-0.26570441,0
0.596,-0.266023632,0
0.597,-0.269215848,0
0.598,-0.274961837,0
0.599,-0.282623156,0
0.6,-0.291242139,0
0.601,-0.300180344,0
0.602,-0.308160884,0
0.603,-0.314545317,0
0.604,-0.318375976,0
0.605,-0.319333641,0
0.606,-0.317418311,0
0.607,-0.312629987,0
0.608,-0.30528789,0
0.609,-0.296030463,0
0.61,-0.285815372,0
0.611,-0.27560028,0
0.612,-0.266023632,0
0.613,-0.258362313,0
0.614,-0.252935546,0
0.615,-0.250700995,0
0.616,-0.251020216,0
0.617,-0.254212432,0
0.618,-0.259319978,0
0.619,-0.266342853,0
0.62,-0.27368495,0
0.621,-0.280707826,0
0.622,-0.286773036,0
0.623,-0.290922917,0
0.624,-0.292519025,0
0.625,-0.291242139,0
0.626,-0.286773036,0
0.627,-0.279750161,0
0.628,-0.270492734,0
0.629,-0.2596392,0
0.63,-0.248147222,0
0.631,-0.236974465,0
0.632,-0.227078596,0
0.633,-0.219098055,0
0.634,-0.21399051,0
0.635,-0.212394401,0
0.636,-0.213671288,0
0.637,-0.217821169,0
0.638,-0.224524823,0
0.639,-0.232505363,0
0.64,-0.241124346,0
0.641,-0.249104887,0
0.642,-0.256127762,0
0.643,-0.260916086,0
0.644,-0.263150637,0
0.645,-0.262512194,0
0.646,-0.258681535,0
0.647,-0.251977881,0
0.648,-0.243358898,0
0.649,-0.232824584,0
0.65,-0.22197105,0
0.651,-0.211117515,0
0.652,-0.201540867,0
0.653,-0.193879548,0
0.654,-0.188452781,0
0.655,-0.185899008,0
0.656,-0.18621823,0
0.657,-0.189091224,0
0.658,-0.193879548,0
0.659,-0.199625537,0
0.66,-0.205690748,0
0.661,-0.211117515,0
0.662,-0.214948174,0
0.663,-0.216225061,0
0.664,-0.214628953,0
0.665,-0.209840629,0
0.666,-0.201860088,0
0.667,-0.191006554,0
0.668,-0.178556911,0
0.669,-0.16451116,0
0.67,-0.150784631,0
0.671,-0.137696545,0
0.672,-0.126204567,0
0.673,-0.117266362,0
0.674,-0.111201151,0
0.675,-0.108328157,0
0.676,-0.108328157,0
0.677,-0.111201151,0
0.678,-0.115989475,0
0.679,-0.122054686,0
0.68,-0.128439118,0
0.681,-0.134185107,0
0.682,-0.138973431,0
0.683,-0.141207983,0
0.684,-0.141207983,0
0.685,-0.138334988,0
0.686,-0.132908221,0
0.687,-0.125566124,0
0.688,-0.11694714,0
0.689,-0.107689714,0
0.69,-0.098751509,0
0.691,-0.09109019,0
0.692,-0.085344201,0
0.693,-0.082151985,0
0.694,-0.082151985,0
0.695,-0.085344201,0
0.696,-0.09109019,0
0.697,-0.099709173,0
0.698,-0.109605043,0
0.699,-0.120458578,0
0.7,-0.130992891,0
0.701,-0.140888761,0
0.702,-0.14855008,0
0.703,-0.153657625,0
0.704,-0.155892177,0
0.705,-0.155253733,0
0.706,-0.151742296,0
0.707,-0.145996307,0
0.708,-0.13865421,0
0.709,-0.130992891,0
0.71,-0.123650794,0
0.711,-0.117585583,0
0.712,-0.114074146,0
0.713,-0.113435703,0
0.714,-0.116308697,0
0.715,-0.122373908,0
0.716,-0.131312113,0
0.717,-0.142484869,0
0.718,-0.154934512,0
0.719,-0.168022598,0
0.72,-0.180791462,0
0.721,-0.19228344,0
0.722,-0.201860088,0
0.723,-0.208563742,0
0.724,-0.212713623,0
0.725,-0.213671288,0
0.726,-0.211436737,0
0.727,-0.207286856,0
0.728,-0.201540867,0
0.729,-0.195475656,0
0.73,-0.190048889,0
0.731,-0.185899008,0
0.732,-0.1843029,0
0.733,-0.185579786,0
0.734,-0.189729667,0
0.735,-0.197071764,0
0.736,-0.207286856,0
0.737,-0.219417277,0
0.738,-0.233143806,0
0.739,-0.246870335,0
0.74,-0.259958421,0
0.741,-0.271450399,0
0.742,-0.280388604,0
0.743,-0.285815372,0
0.744,-0.288369145,0
0.745,-0.287730701,0
0.746,-0.284219264,0
0.747,-0.278473275,0
0.748,-0.271450399,0
0.749,-0.263789081,0
0.75,-0.256446984,0
0.751,-0.250062551,0
0.752,-0.24591267,0
0.753,-0.243997341,0
0.754,-0.245274227,0
0.755,-0.24974333,0
0.756,-0.256766205,0
0.757,-0.266023632,0
0.758,-0.276557945,0
0.759,-0.287092258,0
0.76,-0.29730735,0
0.761,-0.305926333,0
0.762,-0.312310765,0
0.763,-0.316141425,0
0.764,-0.316779868,0
0.765,-0.314545317,0
0.766,-0.310076214,0
0.767,-0.30337256,0
0.768,-0.295711242,0
0.769,-0.287730701,0
0.77,-0.280388604,0
0.771,-0.274642615,0
0.772,-0.271131178,0
0.773,-0.270492734,0
0.774,-0.272088842,0
0.775,-0.276557945,0
0.776,-0.282623156,0
0.777,-0.289965253,0
0.778,-0.297626571,0
0.779,-0.304968668,0
0.78,-0.311672322,0
0.781,-0.316460646,0
0.782,-0.318695197,0
0.783,-0.318375976,0
0.784,-0.31518376,0
0.785,-0.309437771,0
0.786,-0.301457231,0
0.787,-0.291880582,0
0.788,-0.281984712,0
0.789,-0.272408064,0
0.79,-0.264427524,0
0.791,-0.258681535,0
0.792,-0.255489319,0
0.793,-0.255170097,0
0.794,-0.258362313,0
0.795,-0.263789081,0
0.796,-0.271769621,0
0.797,-0.281027048,0
0.798,-0.291242139,0
0.799,-0.301138009,0
0.8,-0.309756992,0
0.801,-0.316460646,0
0.802,-0.320291305,0
0.803,-0.320929749,0
0.804,-0.318695197,0
0.805,-0.31326843,0
0.806,-0.305607111,0
0.807,-0.296349685,0
0.808,-0.286773036,0
0.809,-0.277196388,0
0.81,-0.268896626,0
0.811,-0.262192973,0
0.812,-0.258362313,0
0.813,-0.257085427,0
0.814,-0.259000756,0
0.815,-0.263150637,0
0.816,-0.269215848,0
0.817,-0.276238723,0
0.818,-0.283900042,0
0.819,-0.290922917,0
0.82,-0.296988128,0
0.821,-0.301138009,0
0.822,-0.30337256,0
0.823,-0.303053339,0
0.824,-0.299861122,0
0.825,-0.294434355,0
0.826,-0.286773036,0
0.827,-0.278473275,0
0.828,-0.269854291,0
0.829,-0.262192973,0
0.83,-0.256127762,0
0.831,-0.252935546,0
0.832,-0.252297103,0
0.833,-0.254850876,0
0.834,-0.260277643,0
0.835,-0.267938962,0
0.836,-0.277196388,0
0.837,-0.287092258,0
0.838,-0.296668906,0
0.839,-0.304968668,0
0.84,-0.311033879,0
0.841,-0.314864538,0
0.842,-0.315502981,0
0.843,-0.31326843,0
0.844,-0.307841663,0
0.845,-0.300180344,0
0.846,-0.290922917,0
0.847,-0.280707826,0
0.848,-0.270492734,0
0.849,-0.261554529,0
0.85,-0.254531654,0
0.851,-0.250062551,0
0.852,-0.248785665,0
0.853,-0.250700995,0
0.854,-0.25580854,0
0.855,-0.263469859,0
0.856,-0.272727286,0
0.857,-0.282942377,0
0.858,-0.292838247,0
0.859,-0.302095674,0
0.86,-0.309437771,0
0.861,-0.314226095,0
0.862,-0.316141425,0
0.863,-0.314864538,0
0.864,-0.310395436,0
0.865,-0.304011003,0
0.866,-0.295711242,0
0.867,-0.286773036,0
0.868,-0.277834831,0
0.869,-0.270492734,0
0.87,-0.264746745,0
0.871,-0.261873751,0
0.872,-0.261873751,0
0.873,-0.264746745,0
0.874,-0.270173513,0
0.875,-0.278154053,0
0.876,-0.287092258,0
0.877,-0.296988128,0
0.878,-0.306245555,0
0.879,-0.314545317,0
0.88,-0.320929749,0
0.881,-0.324441186,0
0.882,-0.32507963,0
0.883,-0.322845078,0
0.884,-0.317418311,0
0.885,-0.310076214,0
0.886,-0.301457231,0
0.887,-0.292199804,0
0.888,-0.28358082,0
0.889,-0.276557945,0
0.89,-0.271450399,0
0.891,-0.268896626,0
0.892,-0.269215848,0
0.893,-0.272727286,0
0.894,-0.278473275,0
0.895,-0.286134593,0
0.896,-0.294115134,0
0.897,-0.302414895,0
0.898,-0.309437771,0
0.899,-0.314226095,0
0.9,-0.316779868,0
0.901,-0.315822203,0
0.902,-0.311991544,0
0.903,-0.304649447,0
0.904,-0.294434355,0
0.905,-0.281984712,0
0.906,-0.268577405,0
0.907,-0.254531654,0
0.908,-0.24176279,0
0.909,-0.230270812,0
0.91,-0.221651828,0
0.911,-0.215905839,0
0.912,-0.213352066,0
0.913,-0.213352066,0
0.914,-0.216225061,0
0.915,-0.220374942,0
0.916,-0.225801709,0
0.917,-0.230909255,0
0.918,-0.235378357,0
0.919,-0.238251352,0
0.92,-0.238570573,0
0.921,-0.235697579,0
0.922,-0.22995159,0
0.923,-0.221013385,0
0.924,-0.209840629,0
0.925,-0.196752543,0
0.926,-0.182706792,0
0.927,-0.168980263,0
0.928,-0.155892177,0
0.929,-0.14471942,0
0.93,-0.136419658,0
0.931,-0.130992891,0
0.932,-0.129077561,0
0.933,-0.130035226,0
0.934,-0.133546664,0
0.935,-0.13865421,0
0.936,-0.14471942,0
0.937,-0.151423074,0
0.938,-0.157169063,0
0.939,-0.161957387,0
0.94,-0.16451116,0
0.941,-0.164830382,0
0.942,-0.162276609,0
0.943,-0.157488285,0
0.944,-0.151423074,0
0.945,-0.144080977,0
0.946,-0.137058102,0
0.947,-0.131312113,0
0.948,-0.127481453,0
0.949,-0.126523789,0
0.95,-0.129077561,0
0.951,-0.135781215,0
0.952,-0.145996307,0
0.953,-0.159722836,0
0.954,-0.176003138,0
0.955,-0.193879548,0
0.956,-0.212394401,0
0.957,-0.230590033,0
0.958,-0.247508779,0
0.959,-0.261873751,0
0.96,-0.27368495,0
0.961,-0.281984712,0
0.962,-0.286773036,0
0.963,-0.288369145,0
0.964,-0.287092258,0
0.965,-0.28358082,0
0.966,-0.279430939,0
0.967,-0.274961837,0
0.968,-0.271450399,0
0.969,-0.269854291,0
0.97,-0.270173513,0
0.971,-0.273365729,0
0.972,-0.279430939,101.1804384
0.973,-0.28741148,101.1804384
0.974,-0.297626571,101.1804384
0.975,-0.308480106,101.1804384
0.976,-0.319972084,101.1804384
0.977,-0.330825619,101.1804384
0.978,-0.340083045,101.1804384
0.979,-0.347105921,101.1804384
0.98,-0.351255802,101.1804384
0.981,-0.352532688,101.1804384
0.982,-0.35093658,101.1804384
0.983,-0.346467477,101.1804384
0.984,-0.340402267,101.1804384
0.985,-0.332740948,101.1804384
0.986,-0.324760408,101.1804384
0.987,-0.316779868,101.1804384
0.988,-0.310395436,101.1804384
0.989,-0.305926333,101.1804384
0.99,-0.303691782,101.1804384
0.991,-0.304330225,101.1804384
0.992,-0.307841663,101.1804384
0.993,-0.313587652,101.1804384
0.994,-0.320610527,101.1804384
0.995,-0.328910289,101.1804384
0.996,-0.336890829,101.1804384
0.997,-0.344232926,101.1804384
0.998,-0.349978915,101.1804384
0.999,-0.353490353,101.1804384
1,-0.354767239,101.1804384
1.001,-0.353171131,101.1804384
1.002,-0.348702029,101.1804384
1.003,-0.342317597,101.1804384
1.004,-0.333698613,101.1804384
1.005,-0.324121965,101.1804384
1.006,-0.314545317,101.1804384
1.007,-0.305607111,101.1804384
1.008,-0.298265014,101.1804384
1.009,-0.293157469,101.1804384
1.01,-0.290603696,101.1804384
1.011,-0.290284474,101.1804384
1.012,-0.292199804,101.1804384
1.013,-0.295072798,101.1804384
1.014,-0.297945793,101.1804384
1.015,-0.299861122,101.1804384
1.016,-0.299222679,101.1804384
1.017,-0.295072798,101.1804384
1.018,-0.287092258,101.1804384
1.019,-0.274642615,101.1804384
1.02,-0.257085427,101.1804384
1.021,-0.234420693,101.1804384
1.022,-0.207286856,101.1804384
1.023,-0.176003138,101.1804384
1.024,-0.141207983,101.1804384
1.025,-0.104178276,101.1804384
1.026,-0.066829348,101.1804384
1.027,-0.030118862,101.1804384
1.028,0.004357071,101.1804384
1.029,0.035321567,101.1804384
1.03,0.062774626,101.1804384
1.031,0.085758582,101.1804384
1.032,0.104273435,101.1804384
1.033,0.117361521,101.1804384
1.034,0.12502284,101.1804384
1.035,0.126938169,101.1804384
1.036,0.124065175,101.1804384
1.037,0.116723078,101.1804384
1.038,0.105869543,101.1804384
1.039,0.092462236,101.1804384
1.04,0.076820377,101.1804384
1.041,0.05958241,101.1804384
1.042,0.040429113,101.1804384
1.043,0.019041265,101.1804384
1.044,-0.004261912,101.1804384
1.045,-0.030118862,101.1804384
1.046,-0.058529586,101.1804384
1.047,-0.08917486,101.1804384
1.048,-0.122693129,101.1804384
1.049,-0.158445949,101.1804384
1.05,-0.195794878,101.1804384
1.051,-0.234101471,101.1804384
1.052,-0.272088842,101.1804384
1.053,-0.308480106,101.1804384
1.054,-0.34295604,101.1804384
1.055,-0.373601314,101.1804384
1.056,-0.400415929,101.1804384
1.057,-0.422122999,101.1804384
1.058,-0.438084079,101.1804384
1.059,-0.448299171,101.1804384
1.06,-0.452768273,101.1804384
1.061,-0.451810609,101.1804384
1.062,-0.446383841,101.1804384
1.063,-0.437764858,101.1804384
1.064,-0.426911323,101.1804384
1.065,-0.414780902,101.1804384
1.066,-0.402650481,101.1804384
1.067,-0.391796946,101.1804384
1.068,-0.382858741,101.1804384
1.069,-0.376474309,101.1804384
1.07,-0.372962871,101.1804384
1.071,-0.372324428,101.1804384
1.072,-0.373920536,101.1804384
1.073,-0.377431974,101.1804384
1.074,-0.381581854,101.1804384
1.075,-0.386050957,101.1804384
1.076,-0.389562395,101.1804384
1.077,-0.391796946,101.1804384
1.078,-0.391477724,101.1804384
1.079,-0.388923952,101.1804384
1.08,-0.383816406,101.1804384
1.081,-0.375835866,101.1804384
1.082,-0.366259217,101.1804384
1.083,-0.355086461,101.1804384
1.084,-0.343275261,101.1804384
1.085,-0.331783283,101.1804384
1.086,-0.321887414,101.1804384
1.087,-0.314226095,101.1804384
1.088,-0.309118549,101.1804384
1.089,-0.307203219,101.1804384
1.09,-0.308480106,101.1804384
1.091,-0.312629987,101.1804384
1.092,-0.319014419,101.1804384
1.093,-0.327314181,101.1804384
1.094,-0.336571608,101.1804384
1.095,-0.345509813,101.1804384
1.096,-0.353171131,101.1804384
1.097,-0.35891712,101.1804384
1.098,-0.361790115,101.1804384
1.099,-0.361790115,101.1804384
1.1,-0.358597899,101.1804384
1.101,-0.35285191,101.1804384
1.102,-0.345190591,101.1804384
1.103,-0.335613943,101.1804384
1.104,-0.325718073,101.1804384
1.105,-0.316141425,101.1804384
1.106,-0.307522441,101.1804384
1.107,-0.300818787,101.1804384
1.108,-0.296668906,101.1804384
1.109,-0.295072798,101.1804384
1.11,-0.296030463,101.1804384
1.111,-0.299861122,101.1804384
1.112,-0.305607111,101.1804384
1.113,-0.312310765,101.1804384
1.114,-0.319333641,101.1804384
1.115,-0.326037294,101.1804384
1.116,-0.331464062,101.1804384
1.117,-0.334337056,101.1804384
1.118,-0.334337056,101.1804384
1.119,-0.331464062,101.1804384
1.12,-0.325718073,101.1804384
1.121,-0.317418311,101.1804384
1.122,-0.307203219,101.1804384
1.123,-0.296030463,101.1804384
1.124,-0.284538485,101.1804384
1.125,-0.274004172,101.1804384
1.126,-0.265065967,101.1804384
1.127,-0.258681535,101.1804384
1.128,-0.255170097,101.1804384
1.129,-0.254850876,101.1804384
1.13,-0.25772387,101.1804384
1.131,-0.263150637,101.1804384
1.132,-0.270492734,101.1804384
1.133,-0.279111718,101.1804384
1.134,-0.288369145,101.1804384
1.135,-0.296988128,101.1804384
1.136,-0.304011003,101.1804384
1.137,-0.308480106,101.1804384
1.138,-0.310076214,101.1804384
1.139,-0.308480106,101.1804384
1.14,-0.30337256,101.1804384
1.141,-0.295711242,101.1804384
1.142,-0.285815372,101.1804384
1.143,-0.274642615,101.1804384
1.144,-0.263469859,101.1804384
1.145,-0.252935546,101.1804384
1.146,-0.243678119,101.1804384
1.147,-0.236974465,101.1804384
1.148,-0.232505363,101.1804384
1.149,-0.231228476,101.1804384
1.15,-0.232505363,101.1804384
1.151,-0.236016801,101.1804384
1.152,-0.24176279,101.1804384
1.153,-0.248466443,101.1804384
1.154,-0.255489319,101.1804384
1.155,-0.261873751,101.1804384
1.156,-0.266662075,101.1804384
1.157,-0.26953507,101.1804384
1.158,-0.26953507,101.1804384
1.159,-0.266662075,101.1804384
1.16,-0.261235308,101.1804384
1.161,-0.253573989,101.1804384
1.162,-0.244635784,101.1804384
1.163,-0.234739914,101.1804384
1.164,-0.224844044,101.1804384
1.165,-0.216225061,101.1804384
1.166,-0.209521407,101.1804384
1.167,-0.205052304,101.1804384
1.168,-0.203136975,101.1804384
1.169,-0.20409464,101.1804384
1.17,-0.207606077,101.1804384
1.171,-0.212713623,101.1804384
1.172,-0.219417277,101.1804384
1.173,-0.226440152,101.1804384
1.174,-0.233143806,101.1804384
1.175,-0.238251352,101.1804384
1.176,-0.241443568,101.1804384
1.177,-0.24176279,101.1804384
1.178,-0.238570573,101.1804384
1.179,-0.232505363,101.1804384
1.18,-0.223567158,101.1804384
1.181,-0.212394401,101.1804384
1.182,-0.199944759,101.1804384
1.183,-0.187175894,101.1804384
1.184,-0.174726252,101.1804384
1.185,-0.163872717,101.1804384
1.186,-0.155253733,101.1804384
1.187,-0.149188523,101.1804384
1.188,-0.146315528,101.1804384
1.189,-0.146315528,101.1804384
1.19,-0.149188523,101.1804384
1.191,-0.154296069,101.1804384
1.192,-0.160999722,101.1804384
1.193,-0.168022598,101.1804384
1.194,-0.174726252,101.1804384
1.195,-0.180153019,101.1804384
1.196,-0.183664457,101.1804384
1.197,-0.183983678,101.1804384
1.198,-0.180791462,101.1804384
1.199,-0.174726252,101.1804384
1.2,-0.165468825,101.1804384
1.201,-0.153976847,101.1804384
1.202,-0.140888761,101.1804384
1.203,-0.127481453,101.1804384
1.204,-0.114393367,101.1804384
1.205,-0.102582168,101.1804384
1.206,-0.093324741,101.1804384
1.207,-0.086301866,101.1804384
1.208,-0.082471206,101.1804384
1.209,-0.081513542,101.1804384
1.21,-0.083428871,101.1804384
1.211,-0.086940309,101.1804384
1.212,-0.091728633,101.1804384
1.213,-0.0971554,101.1804384
1.214,-0.101624503,101.1804384
1.215,-0.104816719,101.1804384
1.216,-0.106093606,101.1804384
1.217,-0.104497497,101.1804384
1.218,-0.100347617,101.1804384
1.219,-0.093643963,101.1804384
1.22,-0.084705758,101.1804384
1.221,-0.074490666,101.1804384
1.222,-0.06331791,101.1804384
1.223,-0.052464375,101.1804384
1.224,-0.042887727,101.1804384
1.225,-0.035226408,101.1804384
1.226,-0.030438084,101.1804384
1.227,-0.029161198,101.1804384
1.228,-0.031076527,101.1804384
1.229,-0.036184073,101.1804384
1.23,-0.043845392,101.1804384
1.231,-0.053741262,101.1804384
1.232,-0.064594796,101.1804384
1.233,-0.076086774,101.1804384
1.234,-0.086621087,101.1804384
1.235,-0.095878514,101.1804384
1.236,-0.102582168,101.1804384
1.237,-0.106412827,101.1804384
1.238,-0.107370492,101.1804384
1.239,-0.105455162,101.1804384
1.24,-0.101305281,101.1804384
1.241,-0.095240071,101.1804384
1.242,-0.088855639,101.1804384
1.243,-0.082471206,101.1804384
1.244,-0.077363661,101.1804384
1.245,-0.073852223,101.1804384
1.246,-0.072894558,101.1804384
1.247,-0.075129109,101.1804384
1.248,-0.079917434,101.1804384
1.249,-0.087578752,101.1804384
1.25,-0.097793844,101.1804384
1.251,-0.109285822,101.1804384
1.252,-0.121416243,101.1804384
1.253,-0.133546664,101.1804384
1.254,-0.144400199,101.1804384
1.255,-0.153657625,101.1804384
1.256,-0.160361279,101.1804384
1.257,-0.163872717,101.1804384
1.258,-0.16451116,101.1804384
1.259,-0.16259583,101.1804384
1.26,-0.158445949,101.1804384
1.261,-0.152699961,101.1804384
1.262,-0.14663475,101.1804384
1.263,-0.140888761,101.1804384
1.264,-0.13673888,101.1804384
1.265,-0.13482355,101.1804384
1.266,-0.135461994,101.1804384
1.267,-0.139292653,101.1804384
1.268,-0.145996307,101.1804384
1.269,-0.155572955,101.1804384
1.27,-0.167064933,101.1804384
1.271,-0.179514576,101.1804384
1.272,-0.19228344,101.1804384
1.273,-0.204733083,101.1804384
1.274,-0.215267396,101.1804384
1.275,-0.223567158,101.1804384
1.276,-0.228993925,101.1804384
1.277,-0.231228476,101.1804384
1.278,-0.22995159,101.1804384
1.279,-0.226120931,101.1804384
1.28,-0.219736498,101.1804384
1.281,-0.211755958,101.1804384
1.282,-0.203136975,101.1804384
1.283,-0.195156435,101.1804384
1.284,-0.188133559,101.1804384
1.285,-0.183664457,101.1804384
1.286,-0.181749127,101.1804384
1.287,-0.183026013,101.1804384
1.288,-0.187175894,101.1804384
1.289,-0.193560327,101.1804384
1.29,-0.20217931,101.1804384
1.291,-0.211436737,101.1804384
1.292,-0.221332607,101.1804384
1.293,-0.230590033,101.1804384
1.294,-0.238251352,101.1804384
1.295,-0.243358898,101.1804384
1.296,-0.245593449,101.1804384
1.297,-0.244955006,101.1804384
1.298,-0.241124346,101.1804384
1.299,-0.234739914,101.1804384
1.3,-0.226759374,101.1804384
1.301,-0.217821169,101.1804384
1.302,-0.208882964,101.1804384
1.303,-0.201221645,101.1804384
1.304,-0.195156435,101.1804384
1.305,-0.191325775,101.1804384
1.306,-0.19036811,101.1804384
1.307,-0.192602662,101.1804384
1.308,-0.197710207,101.1804384
1.309,-0.205052304,101.1804384
1.31,-0.214309731,101.1804384
1.311,-0.224205601,101.1804384
1.312,-0.233782249,101.1804384
1.313,-0.242720454,101.1804384
1.314,-0.24974333,101.1804384
1.315,-0.254212432,101.1804384
1.316,-0.255170097,101.1804384
1.317,-0.253254767,101.1804384
1.318,-0.247828,101.1804384
1.319,-0.23984746,101.1804384
1.32,-0.230270812,101.1804384
1.321,-0.219736498,101.1804384
1.322,-0.209202185,101.1804384
1.323,-0.199625537,101.1804384
1.324,-0.19228344,101.1804384
1.325,-0.187175894,101.1804384
1.326,-0.184941343,101.1804384
1.327,-0.185579786,101.1804384
1.328,-0.189091224,101.1804384
1.329,-0.194837213,101.1804384
1.33,-0.20217931,101.1804384
1.331,-0.21015985,101.1804384
1.332,-0.21814039,101.1804384
1.333,-0.224844044,101.1804384
1.334,-0.229313147,101.1804384
1.335,-0.230909255,101.1804384
1.336,-0.229632368,101.1804384
1.337,-0.225163266,101.1804384
1.338,-0.217501947,101.1804384
1.339,-0.207925299,101.1804384
1.34,-0.196752543,101.1804384
1.341,-0.184941343,101.1804384
1.342,-0.174087808,101.1804384
1.343,-0.16451116,101.1804384
1.344,-0.157169063,101.1804384
1.345,-0.152699961,101.1804384
1.346,-0.151423074,101.1804384
1.347,-0.153338404,101.1804384
1.348,-0.158126728,101.1804384
1.349,-0.165468825,101.1804384
1.35,-0.174087808,101.1804384
1.351,-0.183345235,101.1804384
1.352,-0.191964218,101.1804384
1.353,-0.199625537,101.1804384
1.354,-0.205052304,101.1804384
1.355,-0.207925299,101.1804384
1.356,-0.207925299,101.1804384
1.357,-0.204733083,101.1804384
1.358,-0.198987094,101.1804384
1.359,-0.191006554,101.1804384
1.36,-0.181749127,101.1804384
1.361,-0.172172479,101.1804384
1.362,-0.163553495,101.1804384
1.363,-0.15653062,101.1804384
1.364,-0.152061517,101.1804384
1.365,-0.150784631,101.1804384
1.366,-0.152699961,101.1804384
1.367,-0.157488285,101.1804384
1.368,-0.164830382,101.1804384
1.369,-0.17440703,101.1804384
1.37,-0.184941343,101.1804384
1.371,-0.195475656,101.1804384
1.372,-0.205052304,101.1804384
1.373,-0.213032845,101.1804384
1.374,-0.217821169,101.1804384
1.375,-0.219736498,101.1804384
1.376,-0.217821169,101.1804384
1.377,-0.213032845,101.1804384
1.378,-0.205052304,101.1804384
1.379,-0.195475656,101.1804384
1.38,-0.184622121,101.1804384
1.381,-0.173768587,101.1804384
1.382,-0.163553495,101.1804384
1.383,-0.155572955,101.1804384
1.384,-0.150146188,101.1804384
1.385,-0.147911636,101.1804384
1.386,-0.148869301,101.1804384
1.387,-0.153338404,101.1804384
1.388,-0.160361279,101.1804384
1.389,-0.169618706,101.1804384
1.39,-0.179833797,101.1804384
1.391,-0.19036811,101.1804384
1.392,-0.20026398,101.1804384
1.393,-0.208244521,101.1804384
1.394,-0.213352066,101.1804384
1.395,-0.215586618,101.1804384
1.396,-0.214309731,101.1804384
1.397,-0.21015985,101.1804384
1.398,-0.203136975,101.1804384
1.399,-0.19419877,101.1804384
1.4,-0.1843029,101.1804384
1.401,-0.17440703,101.1804384
1.402,-0.165788046,101.1804384
1.403,-0.158765171,101.1804384
1.404,-0.15461529,101.1804384
1.405,-0.153338404,101.1804384
1.406,-0.155572955,101.1804384
1.407,-0.160680501,101.1804384
1.408,-0.168341819,101.1804384
1.409,-0.177918468,101.1804384
1.41,-0.188133559,101.1804384
1.411,-0.198029429,101.1804384
1.412,-0.206648413,101.1804384
1.413,-0.213352066,101.1804384
1.414,-0.216863504,101.1804384
1.415,-0.217501947,101.1804384
1.416,-0.214948174,101.1804384
1.417,-0.209840629,101.1804384
1.418,-0.20217931,101.1804384
1.419,-0.193241105,101.1804384
1.42,-0.183345235,101.1804384
1.421,-0.174087808,101.1804384
1.422,-0.165788046,101.1804384
1.423,-0.159722836,101.1804384
1.424,-0.156849841,101.1804384
1.425,-0.156849841,101.1804384
1.426,-0.160361279,101.1804384
1.427,-0.167064933,101.1804384
1.428,-0.175364695,101.1804384
1.429,-0.185260565,101.1804384
1.43,-0.195475656,101.1804384
1.431,-0.204413861,101.1804384
1.432,-0.211755958,101.1804384
1.433,-0.216544282,101.1804384
1.434,-0.217821169,101.1804384
1.435,-0.214948174,101.1804384
1.436,-0.208563742,101.1804384
1.437,-0.198667872,101.1804384
1.438,-0.18621823,101.1804384
1.439,-0.171853257,101.1804384
1.44,-0.157169063,101.1804384
1.441,-0.142804091,101.1804384
1.442,-0.129716005,101.1804384
1.443,-0.119181692,101.1804384
1.444,-0.111839594,101.1804384
1.445,-0.107689714,101.1804384
1.446,-0.10705127,101.1804384
1.447,-0.109605043,101.1804384
1.448,-0.114074146,101.1804384
1.449,-0.120458578,101.1804384
1.45,-0.12684301,101.1804384
1.451,-0.133227442,101.1804384
1.452,-0.137696545,101.1804384
1.453,-0.139931096,101.1804384
1.454,-0.138973431,101.1804384
1.455,-0.13482355,101.1804384
1.456,-0.127162232,101.1804384
1.457,-0.11694714,101.1804384
1.458,-0.104497497,101.1804384
1.459,-0.090770968,101.1804384
1.46,-0.076725217,101.1804384
1.461,-0.06331791,101.1804384
1.462,-0.051825932,101.1804384
1.463,-0.042568505,101.1804384
1.464,-0.036503295,101.1804384
1.465,-0.033949522,101.1804384
1.466,-0.034907187,101.1804384
1.467,-0.038418624,101.1804384
1.468,-0.044483835,101.1804384
1.469,-0.052145154,101.1804384
1.47,-0.060444915,101.1804384
1.471,-0.068106234,101.1804384
1.472,-0.074809888,101.1804384
1.473,-0.07927899,101.1804384
1.474,-0.08119432,101.1804384
1.475,-0.080236655,101.1804384
1.476,-0.076405996,101.1804384
1.477,-0.070340785,101.1804384
1.478,-0.062998688,101.1804384
1.479,-0.05533737,101.1804384
1.48,-0.048314494,101.1804384
1.481,-0.042568505,101.1804384
1.482,-0.039695511,101.1804384
1.483,-0.039695511,101.1804384
1.484,-0.043845392,101.1804384
1.485,-0.05150671,101.1804384
1.486,-0.062679467,101.1804384
1.487,-0.076405996,101.1804384
1.488,-0.092367076,101.1804384
1.489,-0.1089666,112.5703565
1.49,-0.125885345,112.5703565
1.491,-0.141846426,112.5703565
1.492,-0.156211398,112.5703565
1.493,-0.167384155,112.5703565
1.494,-0.175683916,112.5703565
1.495,-0.180791462,112.5703565
1.496,-0.18238757,112.5703565
1.497,-0.181749127,112.5703565
1.498,-0.179195354,112.5703565
1.499,-0.175683916,112.5703565
1.5,-0.1724917,112.5703565
1.501,-0.170257149,112.5703565
1.502,-0.170257149,112.5703565
1.503,-0.1724917,112.5703565
1.504,-0.177918468,112.5703565
1.505,-0.18621823,112.5703565
1.506,-0.196752543,112.5703565
1.507,-0.209521407,112.5703565
1.508,-0.223567158,112.5703565
1.509,-0.237612909,112.5703565
1.51,-0.250700995,112.5703565
1.511,-0.262192973,112.5703565
1.512,-0.270811956,112.5703565
1.513,-0.27560028,112.5703565
1.514,-0.276877167,112.5703565
1.515,-0.274642615,112.5703565
1.516,-0.268896626,112.5703565
1.517,-0.260596865,112.5703565
1.518,-0.250381773,112.5703565
1.519,-0.239528238,112.5703565
1.52,-0.228993925,112.5703565
1.521,-0.219736498,112.5703565
1.522,-0.212394401,112.5703565
1.523,-0.207925299,112.5703565
1.524,-0.206648413,112.5703565
1.525,-0.208882964,112.5703565
1.526,-0.213671288,112.5703565
1.527,-0.221013385,112.5703565
1.528,-0.229632368,112.5703565
1.529,-0.238889795,112.5703565
1.53,-0.247828,112.5703565
1.531,-0.255170097,112.5703565
1.532,-0.260277643,112.5703565
1.533,-0.262512194,112.5703565
1.534,-0.261873751,112.5703565
1.535,-0.258362313,112.5703565
1.536,-0.252297103,112.5703565
1.537,-0.243997341,112.5703565
1.538,-0.234739914,112.5703565
1.539,-0.225482487,112.5703565
1.54,-0.216544282,112.5703565
1.541,-0.209202185,112.5703565
1.542,-0.20409464,112.5703565
1.543,-0.201540867,112.5703565
1.544,-0.201540867,112.5703565
1.545,-0.203775418,112.5703565
1.546,-0.208244521,112.5703565
1.547,-0.213352066,112.5703565
1.548,-0.219098055,112.5703565
1.549,-0.223567158,112.5703565
1.55,-0.225801709,112.5703565
1.551,-0.224524823,112.5703565
1.552,-0.218459612,112.5703565
1.553,-0.207606077,112.5703565
1.554,-0.191644997,112.5703565
1.555,-0.170257149,112.5703565
1.556,-0.145038642,112.5703565
1.557,-0.115989475,112.5703565
1.558,-0.084386536,112.5703565
1.559,-0.05150671,112.5703565
1.56,-0.018307663,112.5703565
1.561,0.013614498,112.5703565
1.562,0.043302108,112.5703565
1.563,0.069797501,112.5703565
1.564,0.092462236,112.5703565
1.565,0.111296311,112.5703565
1.566,0.125980505,112.5703565
1.567,0.137472482,112.5703565
1.568,0.145772244,112.5703565
1.569,0.151199012,112.5703565
1.57,0.154072006,112.5703565
1.571,0.154072006,112.5703565
1.572,0.151199012,112.5703565
1.573,0.145772244,112.5703565
1.574,0.137791704,112.5703565
1.575,0.127576613,112.5703565
1.576,0.11512697,112.5703565
1.577,0.100123554,112.5703565
1.578,0.081608701,112.5703565
1.579,0.05958241,112.5703565
1.58,0.033087016,112.5703565
1.581,0.002441742,112.5703565
1.582,-0.032672635,112.5703565
1.583,-0.071617672,112.5703565
1.584,-0.113754924,112.5703565
1.585,-0.157807506,112.5703565
1.586,-0.202817753,112.5703565
1.587,-0.246551114,112.5703565
1.588,-0.287730701,112.5703565
1.589,-0.32507963,112.5703565
1.59,-0.357321012,112.5703565
1.591,-0.383497184,112.5703565
1.592,-0.402650481,112.5703565
1.593,-0.415419345,112.5703565
1.594,-0.421484556,112.5703565
1.595,-0.421484556,112.5703565
1.596,-0.416696232,112.5703565
1.597,-0.40839647,112.5703565
1.598,-0.398181378,112.5703565
1.599,-0.3866894,112.5703565
1.6,-0.375835866,112.5703565
1.601,-0.366259217,112.5703565
1.602,-0.35891712,112.5703565
1.603,-0.353809574,112.5703565
1.604,-0.351575023,112.5703565
1.605,-0.351255802,112.5703565
1.606,-0.35285191,112.5703565
1.607,-0.355405683,112.5703565
1.608,-0.357959455,112.5703565
1.609,-0.359874785,112.5703565
1.61,-0.360194007,112.5703565
1.611,-0.358278677,112.5703565
1.612,-0.353490353,112.5703565
1.613,-0.345509813,112.5703565
1.614,-0.334656278,112.5703565
1.615,-0.32124897,112.5703565
1.616,-0.306245555,112.5703565
1.617,-0.290922917,112.5703565
1.618,-0.27560028,112.5703565
1.619,-0.262192973,112.5703565
1.62,-0.251020216,112.5703565
1.621,-0.243678119,112.5703565
1.622,-0.239528238,112.5703565
1.623,-0.23984746,112.5703565
1.624,-0.243358898,112.5703565
1.625,-0.250062551,112.5703565
1.626,-0.259000756,112.5703565
1.627,-0.268896626,112.5703565
1.628,-0.278792496,112.5703565
1.629,-0.287730701,112.5703565
1.63,-0.294434355,112.5703565
1.631,-0.298265014,112.5703565
1.632,-0.298584236,112.5703565
1.633,-0.295711242,112.5703565
1.634,-0.289646031,112.5703565
1.635,-0.280707826,112.5703565
1.636,-0.26953507,112.5703565
1.637,-0.25772387,112.5703565
1.638,-0.245593449,112.5703565
1.639,-0.234739914,112.5703565
1.64,-0.225801709,112.5703565
1.641,-0.22005572,112.5703565
1.642,-0.217182726,112.5703565
1.643,-0.217821169,112.5703565
1.644,-0.221332607,112.5703565
1.645,-0.227717039,112.5703565
1.646,-0.236016801,112.5703565
1.647,-0.244955006,112.5703565
1.648,-0.253893211,112.5703565
1.649,-0.261554529,112.5703565
1.65,-0.267300518,112.5703565
1.651,-0.270173513,112.5703565
1.652,-0.26953507,112.5703565
1.653,-0.266023632,112.5703565
1.654,-0.259000756,112.5703565
1.655,-0.24974333,112.5703565
1.656,-0.238570573,112.5703565
1.657,-0.227078596,112.5703565
1.658,-0.215586618,112.5703565
1.659,-0.205371526,112.5703565
1.66,-0.197071764,112.5703565
1.661,-0.191964218,112.5703565
1.662,-0.189729667,112.5703565
1.663,-0.190687332,112.5703565
1.664,-0.194517991,112.5703565
1.665,-0.200583202,112.5703565
1.666,-0.207925299,112.5703565
1.667,-0.215905839,112.5703565
1.668,-0.223247936,112.5703565
1.669,-0.229313147,112.5703565
1.67,-0.233143806,112.5703565
1.671,-0.234101471,112.5703565
1.672,-0.232186141,112.5703565
1.673,-0.227397817,112.5703565
1.674,-0.22005572,112.5703565
1.675,-0.210479072,112.5703565
1.676,-0.199944759,112.5703565
1.677,-0.189729667,112.5703565
1.678,-0.180153019,112.5703565
1.679,-0.1724917,112.5703565
1.68,-0.167384155,112.5703565
1.681,-0.165468825,112.5703565
1.682,-0.167064933,112.5703565
1.683,-0.171853257,112.5703565
1.684,-0.179195354,112.5703565
1.685,-0.188452781,112.5703565
1.686,-0.198667872,112.5703565
1.687,-0.208882964,112.5703565
1.688,-0.218459612,112.5703565
1.689,-0.225801709,112.5703565
1.69,-0.230590033,112.5703565
1.691,-0.232186141,112.5703565
1.692,-0.22995159,112.5703565
1.693,-0.224524823,112.5703565
1.694,-0.216225061,112.5703565
1.695,-0.205690748,112.5703565
1.696,-0.193879548,112.5703565
1.697,-0.182068349,112.5703565
1.698,-0.170895592,112.5703565
1.699,-0.161638166,112.5703565
1.7,-0.155253733,112.5703565
1.701,-0.152061517,112.5703565
1.702,-0.152061517,112.5703565
1.703,-0.154934512,112.5703565
1.704,-0.160042058,112.5703565
1.705,-0.167064933,112.5703565
1.706,-0.175045473,112.5703565
1.707,-0.182706792,112.5703565
1.708,-0.189091224,112.5703565
1.709,-0.193560327,112.5703565
1.71,-0.195475656,112.5703565
1.711,-0.193879548,112.5703565
1.712,-0.188772002,112.5703565
1.713,-0.180791462,112.5703565
1.714,-0.169937927,112.5703565
1.715,-0.157488285,112.5703565
1.716,-0.144080977,112.5703565
1.717,-0.130992891,112.5703565
1.718,-0.119181692,112.5703565
1.719,-0.109605043,112.5703565
1.72,-0.103220611,112.5703565
1.721,-0.100347617,112.5703565
1.722,-0.100347617,112.5703565
1.723,-0.103859054,112.5703565
1.724,-0.109285822,112.5703565
1.725,-0.116308697,112.5703565
1.726,-0.123970016,112.5703565
1.727,-0.130992891,112.5703565
1.728,-0.13673888,112.5703565
1.729,-0.139931096,112.5703565
1.73,-0.140250318,112.5703565
1.731,-0.13673888,112.5703565
1.732,-0.130035226,112.5703565
1.733,-0.120139356,112.5703565
1.734,-0.107689714,112.5703565
1.735,-0.093643963,112.5703565
1.736,-0.078640547,112.5703565
1.737,-0.063956353,112.5703565
1.738,-0.050868267,112.5703565
1.739,-0.040014732,112.5703565
1.74,-0.032034192,112.5703565
1.741,-0.02756509,112.5703565
1.742,-0.026288203,112.5703565
1.743,-0.028203533,112.5703565
1.744,-0.032672635,112.5703565
1.745,-0.039057068,112.5703565
1.746,-0.045760721,112.5703565
1.747,-0.052783597,112.5703565
1.748,-0.058529586,112.5703565
1.749,-0.062041023,112.5703565
1.75,-0.062998688,112.5703565
1.751,-0.060764137,112.5703565
1.752,-0.055656591,112.5703565
1.753,-0.047995273,112.5703565
1.754,-0.038418624,112.5703565
1.755,-0.027884311,112.5703565
1.756,-0.017349998,112.5703565
1.757,-0.00777335,112.5703565
1.758,-0.000431253,112.5703565
1.759,0.004676293,112.5703565
1.76,0.006272401,112.5703565
1.761,0.004357071,112.5703565
1.762,-0.000750474,112.5703565
1.763,-0.009050236,112.5703565
1.764,-0.018946106,112.5703565
1.765,-0.030118862,112.5703565
1.766,-0.04161084,112.5703565
1.767,-0.052145154,112.5703565
1.768,-0.06140258,112.5703565
1.769,-0.068106234,112.5703565
1.77,-0.071936893,112.5703565
1.771,-0.072575337,112.5703565
1.772,-0.070340785,112.5703565
1.773,-0.06523324,112.5703565
1.774,-0.058529586,112.5703565
1.775,-0.050868267,112.5703565
1.776,-0.04352617,112.5703565
1.777,-0.037460959,112.5703565
1.778,-0.033311079,112.5703565
1.779,-0.032353414,112.5703565
1.78,-0.034268743,112.5703565
1.781,-0.040014732,112.5703565
1.782,-0.049272159,112.5703565
1.783,-0.061083359,112.5703565
1.784,-0.074809888,112.5703565
1.785,-0.089494082,112.5703565
1.786,-0.104497497,112.5703565
1.787,-0.118543248,112.5703565
1.788,-0.130354448,112.5703565
1.789,-0.139931096,112.5703565
1.79,-0.146315528,112.5703565
1.791,-0.149188523,112.5703565
1.792,-0.149188523,112.5703565
1.793,-0.14663475,112.5703565
1.794,-0.142165647,112.5703565
1.795,-0.137058102,112.5703565
1.796,-0.131950556,112.5703565
1.797,-0.128119897,112.5703565
1.798,-0.126204567,112.5703565
1.799,-0.127162232,112.5703565
1.8,-0.130673669,112.5703565
1.801,-0.137696545,112.5703565
1.802,-0.147273193,112.5703565
1.803,-0.159084393,112.5703565
1.804,-0.172172479,112.5703565
1.805,-0.185899008,112.5703565
1.806,-0.199306315,112.5703565
1.807,-0.211117515,112.5703565
1.808,-0.220694163,112.5703565
1.809,-0.227397817,112.5703565
1.81,-0.230909255,112.5703565
1.811,-0.230909255,112.5703565
1.812,-0.22803626,112.5703565
1.813,-0.222928715,112.5703565
1.814,-0.216544282,112.5703565
1.815,-0.209202185,112.5703565
1.816,-0.202498532,112.5703565
1.817,-0.197390986,112.5703565
1.818,-0.194517991,112.5703565
1.819,-0.194517991,112.5703565
1.82,-0.197710207,112.5703565
1.821,-0.20409464,112.5703565
1.822,-0.213032845,112.5703565
1.823,-0.224205601,112.5703565
1.824,-0.236974465,112.5703565
1.825,-0.24974333,112.5703565
1.826,-0.262192973,112.5703565
1.827,-0.272727286,112.5703565
1.828,-0.281027048,112.5703565
1.829,-0.286134593,112.5703565
1.83,-0.288049923,112.5703565
1.831,-0.286453815,112.5703565
1.832,-0.282303934,112.5703565
1.833,-0.276238723,112.5703565
1.834,-0.268577405,112.5703565
1.835,-0.260916086,112.5703565
1.836,-0.254212432,112.5703565
1.837,-0.249104887,112.5703565
1.838,-0.246231892,112.5703565
1.839,-0.246231892,112.5703565
1.84,-0.249424108,112.5703565
1.841,-0.255170097,112.5703565
1.842,-0.263469859,112.5703565
1.843,-0.273365729,112.5703565
1.844,-0.284219264,112.5703565
1.845,-0.294753577,112.5703565
1.846,-0.304011003,112.5703565
1.847,-0.311672322,112.5703565
1.848,-0.316141425,112.5703565
1.849,-0.317418311,112.5703565
1.85,-0.314864538,112.5703565
1.851,-0.308799328,112.5703565
1.852,-0.300180344,112.5703565
1.853,-0.289007588,112.5703565
1.854,-0.277196388,112.5703565
1.855,-0.265385189,112.5703565
1.856,-0.254531654,112.5703565
1.857,-0.24591267,112.5703565
1.858,-0.240166682,112.5703565
1.859,-0.23793213,112.5703565
1.86,-0.238889795,112.5703565
1.861,-0.242720454,112.5703565
1.862,-0.249104887,112.5703565
1.863,-0.256766205,112.5703565
1.864,-0.265385189,112.5703565
1.865,-0.274004172,112.5703565
1.866,-0.281346269,112.5703565
1.867,-0.287092258,112.5703565
1.868,-0.289965253,112.5703565
1.869,-0.289965253,112.5703565
1.87,-0.286453815,112.5703565
1.871,-0.280069383,112.5703565
1.872,-0.271131178,112.5703565
1.873,-0.260277643,112.5703565
1.874,-0.248785665,112.5703565
1.875,-0.237612909,112.5703565
1.876,-0.22803626,112.5703565
1.877,-0.221013385,112.5703565
1.878,-0.216863504,112.5703565
1.879,-0.216225061,112.5703565
1.88,-0.219098055,112.5703565
1.881,-0.224844044,112.5703565
1.882,-0.233143806,112.5703565
1.883,-0.243039676,112.5703565
1.884,-0.253573989,112.5703565
1.885,-0.263789081,112.5703565
1.886,-0.272727286,112.5703565
1.887,-0.279111718,112.5703565
1.888,-0.282942377,112.5703565
1.889,-0.282942377,112.5703565
1.89,-0.279750161,112.5703565
1.891,-0.27368495,112.5703565
1.892,-0.265385189,112.5703565
1.893,-0.25580854,112.5703565
1.894,-0.245593449,112.5703565
1.895,-0.236016801,112.5703565
1.896,-0.22803626,112.5703565
1.897,-0.222609493,112.5703565
1.898,-0.219736498,112.5703565
1.899,-0.220374942,112.5703565
1.9,-0.224205601,112.5703565
1.901,-0.230909255,112.5703565
1.902,-0.239528238,112.5703565
1.903,-0.24974333,112.5703565
1.904,-0.259958421,112.5703565
1.905,-0.26953507,112.5703565
1.906,-0.277196388,112.5703565
1.907,-0.282623156,112.5703565
1.908,-0.285176928,112.5703565
1.909,-0.284219264,112.5703565
1.91,-0.280069383,112.5703565
1.911,-0.273046507,112.5703565
1.912,-0.263789081,112.5703565
1.913,-0.253573989,112.5703565
1.914,-0.243358898,112.5703565
1.915,-0.233782249,112.5703565
1.916,-0.226440152,112.5703565
1.917,-0.221332607,112.5703565
1.918,-0.219417277,112.5703565
1.919,-0.221013385,112.5703565
1.92,-0.225801709,112.5703565
1.921,-0.233143806,112.5703565
1.922,-0.242401233,112.5703565
1.923,-0.252616324,112.5703565
1.924,-0.263150637,112.5703565
1.925,-0.272408064,112.5703565
1.926,-0.280069383,112.5703565
1.927,-0.284538485,112.5703565
1.928,-0.286134593,112.5703565
1.929,-0.283900042,112.5703565
1.93,-0.278792496,112.5703565
1.931,-0.270811956,112.5703565
1.932,-0.260916086,112.5703565
1.933,-0.250062551,112.5703565
1.934,-0.239528238,112.5703565
1.935,-0.230270812,112.5703565
1.936,-0.222928715,112.5703565
1.937,-0.218459612,112.5703565
1.938,-0.217501947,112.5703565
1.939,-0.219736498,112.5703565
1.94,-0.225163266,112.5703565
1.941,-0.233463028,112.5703565
1.942,-0.243358898,112.5703565
1.943,-0.254212432,112.5703565
1.944,-0.265065967,112.5703565
1.945,-0.274642615,112.5703565
1.946,-0.281984712,112.5703565
1.947,-0.286134593,112.5703565
1.948,-0.28741148,112.5703565
1.949,-0.285176928,112.5703565
1.95,-0.280388604,112.5703565
1.951,-0.273046507,112.5703565
1.952,-0.264108302,112.5703565
1.953,-0.254531654,112.5703565
1.954,-0.244635784,112.5703565
1.955,-0.236336022,112.5703565
1.956,-0.229632368,112.5703565
1.957,-0.226120931,112.5703565
1.958,-0.225482487,112.5703565
1.959,-0.228355482,112.5703565
1.96,-0.234101471,112.5703565
1.961,-0.242082011,112.5703565
1.962,-0.251977881,112.5703565
1.963,-0.262192973,112.5703565
1.964,-0.272408064,112.5703565
1.965,-0.280707826,112.5703565
1.966,-0.287092258,112.5703565
1.967,-0.290603696,112.5703565
1.968,-0.290922917,112.5703565
1.969,-0.288369145,112.5703565
1.97,-0.282623156,112.5703565
1.971,-0.274961837,112.5703565
1.972,-0.266023632,112.5703565
1.973,-0.256766205,112.5703565
1.974,-0.247828,112.5703565
1.975,-0.240485903,112.5703565
1.976,-0.235378357,112.5703565
1.977,-0.232824584,112.5703565
1.978,-0.233463028,112.5703565
1.979,-0.236655244,112.5703565
1.98,-0.242082011,112.5703565
1.981,-0.249424108,112.5703565
1.982,-0.257404648,112.5703565
1.983,-0.265065967,112.5703565
1.984,-0.271769621,112.5703565
1.985,-0.276238723,112.5703565
1.986,-0.277834831,112.5703565
1.987,-0.275919502,112.5703565
1.988,-0.270173513,112.5703565
1.989,-0.260916086,112.5703565
1.99,-0.248785665,112.5703565
1.991,-0.234420693,112.5703565
1.992,-0.219098055,112.5703565
1.993,-0.203775418,112.5703565
1.994,-0.189729667,112.5703565
1.995,-0.177599246,112.5703565
1.996,-0.168661041,112.5703565
1.997,-0.163234274,112.5703565
1.998,-0.160999722,112.5703565
1.999,-0.162276609,112.5703565
2,-0.16642649,112.5703565
2.001,-0.172172479,112.5703565
2.002,-0.179514576,112.5703565
2.003,-0.186537451,112.5703565
2.004,-0.192921883,112.5703565
2.005,-0.197710207,112.5703565
2.006,-0.199625537,112.5703565
2.007,-0.198029429,112.5703565
2.008,-0.193560327,112.5703565
2.009,-0.185579786,112.5703565
2.01,-0.174726252,112.5703565
2.011,-0.162276609,112.5703565
2.012,-0.148869301,112.5703565
2.013,-0.135461994,112.5703565
2.014,-0.123650794,112.5703565
2.015,-0.114074146,112.5703565
2.016,-0.107370492,112.5703565
2.017,-0.104178276,112.5703565
2.018,-0.104816719,112.5703565
2.019,-0.108647378,112.5703565
2.02,-0.115670254,112.5703565
2.021,-0.124608459,112.5703565
2.022,-0.134504329,112.5703565
2.023,-0.145038642,112.5703565
2.024,-0.15461529,112.5703565
2.025,-0.16259583,112.5703565
2.026,-0.168341819,112.5703565
2.027,-0.170895592,112.5703565
2.028,-0.170257149,112.5703565
2.029,-0.166745711,112.5703565
2.03,-0.161318944,112.5703565
2.031,-0.154296069,112.5703565
2.032,-0.14663475,112.5703565
2.033,-0.139931096,112.5703565
2.034,-0.13482355,112.5703565
2.035,-0.132588999,112.5703565
2.036,-0.133227442,112.5703565
2.037,-0.137696545,112.5703565
2.038,-0.145677085,112.5703565
2.039,-0.156849841,112.5703565
2.04,-0.170895592,112.5703565
2.041,-0.187175894,108.6956522
2.042,-0.20409464,108.6956522
2.043,-0.220694163,108.6956522
2.044,-0.236336022,108.6956522
2.045,-0.24974333,108.6956522
2.046,-0.260277643,108.6956522
2.047,-0.26761974,108.6956522
2.048,-0.271769621,108.6956522
2.049,-0.272727286,108.6956522
2.05,-0.271131178,108.6956522
2.051,-0.267938962,108.6956522
2.052,-0.264108302,108.6956522
2.053,-0.259958421,108.6956522
2.054,-0.257404648,108.6956522
2.055,-0.256446984,108.6956522
2.056,-0.258362313,108.6956522
2.057,-0.262831416,108.6956522
2.058,-0.270173513,108.6956522
2.059,-0.279750161,108.6956522
2.06,-0.290922917,108.6956522
2.061,-0.302414895,108.6956522
2.062,-0.313906873,108.6956522
2.063,-0.324121965,108.6956522
2.064,-0.332421727,108.6956522
2.065,-0.338167716,108.6956522
2.066,-0.340721488,108.6956522
2.067,-0.339763824,108.6956522
2.068,-0.335613943,108.6956522
2.069,-0.328591067,108.6956522
2.07,-0.319014419,108.6956522
2.071,-0.308480106,108.6956522
2.072,-0.297626571,108.6956522
2.073,-0.287730701,108.6956522
2.074,-0.279430939,108.6956522
2.075,-0.274004172,108.6956522
2.076,-0.271769621,108.6956522
2.077,-0.273046507,108.6956522
2.078,-0.27751561,108.6956522
2.079,-0.284538485,108.6956522
2.08,-0.293157469,108.6956522
2.081,-0.302414895,108.6956522
2.082,-0.311672322,108.6956522
2.083,-0.319652862,108.6956522
2.084,-0.325718073,108.6956522
2.085,-0.329548732,108.6956522
2.086,-0.329867954,108.6956522
2.087,-0.327314181,108.6956522
2.088,-0.32124897,108.6956522
2.089,-0.312629987,108.6956522
2.09,-0.301457231,108.6956522
2.091,-0.289326809,108.6956522
2.092,-0.276557945,108.6956522
2.093,-0.264746745,108.6956522
2.094,-0.254531654,108.6956522
2.095,-0.246551114,108.6956522
2.096,-0.241443568,108.6956522
2.097,-0.239209017,108.6956522
2.098,-0.238889795,108.6956522
2.099,-0.239528238,108.6956522
2.1,-0.240485903,108.6956522
2.101,-0.240485903,108.6956522
2.102,-0.238251352,108.6956522
2.103,-0.232505363,108.6956522
2.104,-0.222609493,108.6956522
2.105,-0.207925299,108.6956522
2.106,-0.188133559,108.6956522
2.107,-0.163234274,108.6956522
2.108,-0.133227442,108.6956522
2.109,-0.099389952,108.6956522
2.11,-0.062998688,108.6956522
2.111,-0.02564976,108.6956522
2.112,0.010741504,108.6956522
2.113,0.045217437,108.6956522
2.114,0.076181933,108.6956522
2.115,0.102677327,108.6956522
2.116,0.123745953,108.6956522
2.117,0.139068591,108.6956522
2.118,0.148006796,108.6956522
2.119,0.150241347,108.6956522
2.12,0.146091466,108.6956522
2.121,0.135557153,108.6956522
2.122,0.119276851,108.6956522
2.123,0.098527446,108.6956522
2.124,0.074585825,108.6956522
2.125,0.048409653,108.6956522
2.126,0.020956595,108.6956522
2.127,-0.007134907,108.6956522
2.128,-0.036184073,108.6956522
2.129,-0.065552461,108.6956522
2.13,-0.095559292,108.6956522
2.131,-0.12684301,108.6956522
2.132,-0.159084393,108.6956522
2.133,-0.192602662,108.6956522
2.134,-0.227397817,108.6956522
2.135,-0.262831416,108.6956522
2.136,-0.298903458,108.6956522
2.137,-0.334656278,108.6956522
2.138,-0.369132212,108.6956522
2.139,-0.401692816,108.6956522
2.14,-0.431061204,108.6956522
2.141,-0.456279711,108.6956522
2.142,-0.476709894,108.6956522
2.143,-0.492032531,108.6956522
2.144,-0.501289958,108.6956522
2.145,-0.504162953,108.6956522
2.146,-0.501289958,108.6956522
2.147,-0.492990196,108.6956522
2.148,-0.480540553,108.6956522
2.149,-0.464898695,108.6956522
2.15,-0.447022284,108.6956522
2.151,-0.428507431,108.6956522
2.152,-0.410311799,108.6956522
2.153,-0.394031497,108.6956522
2.154,-0.379985746,108.6956522
2.155,-0.369132212,108.6956522
2.156,-0.361790115,108.6956522
2.157,-0.357640234,108.6956522
2.158,-0.356682569,108.6956522
2.159,-0.357959455,108.6956522
2.16,-0.360513228,108.6956522
2.161,-0.363386223,108.6956522
2.162,-0.365301552,108.6956522
2.163,-0.365939996,108.6956522
2.164,-0.364343888,108.6956522
2.165,-0.360194007,108.6956522
2.166,-0.353171131,108.6956522
2.167,-0.343913705,108.6956522
2.168,-0.332740948,108.6956522
2.169,-0.320291305,108.6956522
2.17,-0.307841663,108.6956522
2.171,-0.296349685,108.6956522
2.172,-0.286453815,108.6956522
2.173,-0.279430939,108.6956522
2.174,-0.27560028,108.6956522
2.175,-0.274961837,108.6956522
2.176,-0.277834831,108.6956522
2.177,-0.28358082,108.6956522
2.178,-0.291880582,108.6956522
2.179,-0.301457231,108.6956522
2.18,-0.3113531,108.6956522
2.181,-0.320929749,108.6956522
2.182,-0.328910289,108.6956522
2.183,-0.334337056,108.6956522
2.184,-0.336571608,108.6956522
2.185,-0.335294721,108.6956522
2.186,-0.330506397,108.6956522
2.187,-0.322206635,108.6956522
2.188,-0.311672322,108.6956522
2.189,-0.299222679,108.6956522
2.19,-0.286453815,108.6956522
2.191,-0.274004172,108.6956522
2.192,-0.263469859,108.6956522
2.193,-0.255489319,108.6956522
2.194,-0.250381773,108.6956522
2.195,-0.248785665,108.6956522
2.196,-0.250700995,108.6956522
2.197,-0.255489319,108.6956522
2.198,-0.262512194,108.6956522
2.199,-0.270811956,108.6956522
2.2,-0.279750161,108.6956522
2.201,-0.288049923,108.6956522
2.202,-0.294434355,108.6956522
2.203,-0.298584236,108.6956522
2.204,-0.299541901,108.6956522
2.205,-0.29730735,108.6956522
2.206,-0.291561361,108.6956522
2.207,-0.283261599,108.6956522
2.208,-0.272408064,108.6956522
2.209,-0.260596865,108.6956522
2.21,-0.248466443,108.6956522
2.211,-0.237293687,108.6956522
2.212,-0.22803626,108.6956522
2.213,-0.221332607,108.6956522
2.214,-0.21814039,108.6956522
2.215,-0.21814039,108.6956522
2.216,-0.221651828,108.6956522
2.217,-0.228355482,108.6956522
2.218,-0.236974465,108.6956522
2.219,-0.247189557,108.6956522
2.22,-0.25772387,108.6956522
2.221,-0.267300518,108.6956522
2.222,-0.274961837,108.6956522
2.223,-0.279430939,108.6956522
2.224,-0.281027048,108.6956522
2.225,-0.278792496,108.6956522
2.226,-0.273046507,108.6956522
2.227,-0.264746745,108.6956522
2.228,-0.254212432,108.6956522
2.229,-0.242720454,108.6956522
2.23,-0.230590033,108.6956522
2.231,-0.219417277,108.6956522
2.232,-0.209840629,108.6956522
2.233,-0.202498532,108.6956522
2.234,-0.198667872,108.6956522
2.235,-0.197710207,108.6956522
2.236,-0.20026398,108.6956522
2.237,-0.205371526,108.6956522
2.238,-0.212713623,108.6956522
2.239,-0.221013385,108.6956522
2.24,-0.228993925,108.6956522
2.241,-0.236336022,108.6956522
2.242,-0.24176279,108.6956522
2.243,-0.244316562,108.6956522
2.244,-0.243997341,108.6956522
2.245,-0.240166682,108.6956522
2.246,-0.233143806,108.6956522
2.247,-0.223886379,108.6956522
2.248,-0.212394401,108.6956522
2.249,-0.20026398,108.6956522
2.25,-0.188452781,108.6956522
2.251,-0.177599246,108.6956522
2.252,-0.168661041,108.6956522
2.253,-0.162915052,108.6956522
2.254,-0.159722836,108.6956522
2.255,-0.159722836,108.6956522
2.256,-0.16259583,108.6956522
2.257,-0.167703376,108.6956522
2.258,-0.17440703,108.6956522
2.259,-0.181749127,108.6956522
2.26,-0.189091224,108.6956522
2.261,-0.194837213,108.6956522
2.262,-0.198348651,108.6956522
2.263,-0.198987094,108.6956522
2.264,-0.195794878,108.6956522
2.265,-0.189410446,108.6956522
2.266,-0.180153019,108.6956522
2.267,-0.168341819,108.6956522
2.268,-0.155572955,108.6956522
2.269,-0.142165647,108.6956522
2.27,-0.129077561,108.6956522
2.271,-0.117585583,108.6956522
2.272,-0.108328157,108.6956522
2.273,-0.102262946,108.6956522
2.274,-0.09907073,108.6956522
2.275,-0.098751509,108.6956522
2.276,-0.101305281,108.6956522
2.277,-0.106093606,108.6956522
2.278,-0.111839594,108.6956522
2.279,-0.117904805,108.6956522
2.28,-0.123331572,108.6956522
2.281,-0.127162232,108.6956522
2.282,-0.128439118,108.6956522
2.283,-0.126523789,108.6956522
2.284,-0.121416243,108.6956522
2.285,-0.112797259,108.6956522
2.286,-0.101305281,108.6956522
2.287,-0.087259531,108.6956522
2.288,-0.072256115,108.6956522
2.289,-0.056614256,108.6956522
2.29,-0.042249284,108.6956522
2.291,-0.029480419,108.6956522
2.292,-0.019584549,108.6956522
2.293,-0.012880896,108.6956522
2.294,-0.009688679,108.6956522
2.295,-0.009369458,108.6956522
2.296,-0.012242452,108.6956522
2.297,-0.016711555,108.6956522
2.298,-0.022457544,108.6956522
2.299,-0.028522754,108.6956522
2.3,-0.033949522,108.6956522
2.301,-0.037780181,108.6956522
2.302,-0.039376289,108.6956522
2.303,-0.038418624,108.6956522
2.304,-0.034268743,108.6956522
2.305,-0.02756509,108.6956522
2.306,-0.018307663,108.6956522
2.307,-0.007454128,108.6956522
2.308,0.003718628,108.6956522
2.309,0.014572163,108.6956522
2.31,0.02382959,108.6956522
2.311,0.031171687,108.6956522
2.312,0.035002346,108.6956522
2.313,0.035321567,108.6956522
2.314,0.032129351,108.6956522
2.315,0.025106476,108.6956522
2.316,0.015210606,108.6956522
2.317,0.003718628,108.6956522
2.318,-0.009050236,108.6956522
2.319,-0.022138322,108.6956522
2.32,-0.034268743,108.6956522
2.321,-0.044164613,108.6956522
2.322,-0.051187489,108.6956522
2.323,-0.054698926,108.6956522
2.324,-0.055018148,108.6956522
2.325,-0.052464375,108.6956522
2.326,-0.047037608,108.6956522
2.327,-0.040014732,108.6956522
2.328,-0.032353414,108.6956522
2.329,-0.024692095,108.6956522
2.33,-0.018307663,108.6956522
2.331,-0.014477004,108.6956522
2.332,-0.013200117,108.6956522
2.333,-0.015434668,108.6956522
2.334,-0.021180657,108.6956522
2.335,-0.029799641,108.6956522
2.336,-0.040972397,108.6956522
2.337,-0.054060483,108.6956522
2.338,-0.067787012,108.6956522
2.339,-0.080875098,108.6956522
2.34,-0.092686298,108.6956522
2.341,-0.101943725,108.6956522
2.342,-0.108647378,108.6956522
2.343,-0.112158816,108.6956522
2.344,-0.112797259,108.6956522
2.345,-0.110243486,108.6956522
2.346,-0.105135941,108.6956522
2.347,-0.098751509,108.6956522
2.348,-0.091728633,108.6956522
2.349,-0.085344201,108.6956522
2.35,-0.080555877,108.6956522
2.351,-0.078002104,108.6956522
2.352,-0.078321326,108.6956522
2.353,-0.082151985,108.6956522
2.354,-0.08917486,108.6956522
2.355,-0.098751509,108.6956522
2.356,-0.110562708,108.6956522
2.357,-0.123970016,108.6956522
2.358,-0.137696545,108.6956522
2.359,-0.151103852,108.6956522
2.36,-0.162915052,108.6956522
2.361,-0.172172479,108.6956522
2.362,-0.178876132,108.6956522
2.363,-0.182068349,108.6956522
2.364,-0.181749127,108.6956522
2.365,-0.178876132,108.6956522
2.366,-0.173449365,108.6956522
2.367,-0.167064933,108.6956522
2.368,-0.160042058,108.6956522
2.369,-0.153976847,108.6956522
2.37,-0.149507744,108.6956522
2.371,-0.147273193,108.6956522
2.372,-0.147911636,108.6956522
2.373,-0.151742296,108.6956522
2.374,-0.158445949,108.6956522
2.375,-0.167384155,108.6956522
2.376,-0.178237689,108.6956522
2.377,-0.189729667,108.6956522
2.378,-0.201221645,108.6956522
2.379,-0.211436737,108.6956522
2.38,-0.219736498,108.6956522
2.381,-0.225482487,108.6956522
2.382,-0.227717039,108.6956522
2.383,-0.226120931,108.6956522
2.384,-0.221651828,108.6956522
2.385,-0.21399051,108.6956522
2.386,-0.204413861,108.6956522
2.387,-0.193879548,108.6956522
2.388,-0.183345235,108.6956522
2.389,-0.173768587,108.6956522
2.39,-0.166107268,108.6956522
2.391,-0.161318944,108.6956522
2.392,-0.159722836,108.6956522
2.393,-0.161318944,108.6956522
2.394,-0.166107268,108.6956522
2.395,-0.173449365,108.6956522
2.396,-0.182706792,108.6956522
2.397,-0.192602662,108.6956522
2.398,-0.202498532,108.6956522
2.399,-0.210798293,108.6956522
2.4,-0.217182726,108.6956522
2.401,-0.220694163,108.6956522
2.402,-0.220694163,108.6956522
2.403,-0.217821169,108.6956522
2.404,-0.211755958,108.6956522
2.405,-0.203136975,108.6956522
2.406,-0.192921883,108.6956522
2.407,-0.181749127,108.6956522
2.408,-0.170576371,108.6956522
2.409,-0.160999722,108.6956522
2.41,-0.153338404,108.6956522
2.411,-0.14855008,108.6956522
2.412,-0.146953972,108.6956522
2.413,-0.148869301,108.6956522
2.414,-0.153657625,108.6956522
2.415,-0.160680501,108.6956522
2.416,-0.169618706,108.6956522
2.417,-0.179195354,108.6956522
2.418,-0.188452781,108.6956522
2.419,-0.196752543,108.6956522
2.42,-0.202498532,108.6956522
2.421,-0.205371526,108.6956522
2.422,-0.205052304,108.6956522
2.423,-0.201221645,108.6956522
2.424,-0.19419877,108.6956522
2.425,-0.184941343,108.6956522
2.426,-0.174087808,108.6956522
2.427,-0.162276609,108.6956522
2.428,-0.151423074,108.6956522
2.429,-0.141527204,108.6956522
2.43,-0.134185107,108.6956522
2.431,-0.129396783,108.6956522
2.432,-0.127481453,108.6956522
2.433,-0.12875834,108.6956522
2.434,-0.132269778,108.6956522
2.435,-0.137696545,108.6956522
2.436,-0.144400199,108.6956522
2.437,-0.151423074,108.6956522
2.438,-0.158126728,108.6956522
2.439,-0.162915052,108.6956522
2.44,-0.165468825,108.6956522
2.441,-0.165149603,108.6956522
2.442,-0.161957387,108.6956522
2.443,-0.155892177,108.6956522
2.444,-0.147273193,108.6956522
2.445,-0.137058102,108.6956522
2.446,-0.125566124,108.6956522
2.447,-0.114393367,108.6956522
2.448,-0.103539833,108.6956522
2.449,-0.094920849,108.6956522
2.45,-0.088536417,108.6956522
2.451,-0.085663423,108.6956522
2.452,-0.086301866,108.6956522
2.453,-0.090132525,108.6956522
2.454,-0.096516957,108.6956522
2.455,-0.105135941,108.6956522
2.456,-0.114712589,108.6956522
2.457,-0.124608459,108.6956522
2.458,-0.133546664,108.6956522
2.459,-0.140569539,108.6956522
2.46,-0.145038642,108.6956522
2.461,-0.145996307,108.6956522
2.462,-0.144080977,108.6956522
2.463,-0.138973431,108.6956522
2.464,-0.131312113,108.6956522
2.465,-0.122373908,108.6956522
2.466,-0.112797259,108.6956522
2.467,-0.103859054,108.6956522
2.468,-0.096197736,108.6956522
2.469,-0.090770968,108.6956522
2.47,-0.087897974,108.6956522
2.471,-0.088536417,108.6956522
2.472,-0.092047855,108.6956522
2.473,-0.09907073,108.6956522
2.474,-0.108008935,108.6956522
2.475,-0.11886247,108.6956522
2.476,-0.130354448,108.6956522
2.477,-0.141207983,108.6956522
2.478,-0.151103852,108.6956522
2.479,-0.158445949,108.6956522
2.48,-0.163234274,108.6956522
2.481,-0.16451116,108.6956522
2.482,-0.162276609,108.6956522
2.483,-0.15653062,108.6956522
2.484,-0.14855008,108.6956522
2.485,-0.138334988,108.6956522
2.486,-0.127481453,108.6956522
2.487,-0.11694714,108.6956522
2.488,-0.107370492,108.6956522
2.489,-0.099709173,108.6956522
2.49,-0.095240071,108.6956522
2.491,-0.093643963,108.6956522
2.492,-0.095559292,108.6956522
2.493,-0.100347617,108.6956522
2.494,-0.107689714,108.6956522
2.495,-0.116627919,108.6956522
2.496,-0.126204567,108.6956522
2.497,-0.135461994,108.6956522
2.498,-0.143123312,108.6956522
2.499,-0.148869301,108.6956522
2.5,-0.151742296,108.6956522
2.501,-0.151423074,108.6956522
2.502,-0.147911636,108.6956522
2.503,-0.141846426,108.6956522
2.504,-0.133546664,108.6956522
2.505,-0.123970016,108.6956522
2.506,-0.114393367,108.6956522
2.507,-0.105774384,108.6956522
2.508,-0.098751509,108.6956522
2.509,-0.094282406,108.6956522
2.51,-0.092686298,108.6956522
2.511,-0.094601628,108.6956522
2.512,-0.09907073,108.6956522
2.513,-0.106412827,108.6956522
2.514,-0.115351032,108.6956522
2.515,-0.125566124,108.6956522
2.516,-0.135781215,108.6956522
2.517,-0.145038642,108.6956522
2.518,-0.152061517,108.6956522
2.519,-0.15653062,108.6956522
2.52,-0.157488285,108.6956522
2.521,-0.154934512,108.6956522
2.522,-0.14855008,108.6956522
2.523,-0.138973431,108.6956522
2.524,-0.12684301,108.6956522
2.525,-0.113116481,108.6956522
2.526,-0.098751509,108.6956522
2.527,-0.085024979,108.6956522
2.528,-0.072894558,108.6956522
2.529,-0.06331791,108.6956522
2.53,-0.056933478,108.6956522
2.531,-0.054060483,108.6956522
2.532,-0.054060483,108.6956522
2.533,-0.056933478,108.6956522
2.534,-0.062041023,108.6956522
2.535,-0.068106234,108.6956522
2.536,-0.074171445,108.6956522
2.537,-0.079598212,108.6956522
2.538,-0.08310965,108.6956522
2.539,-0.084067314,108.6956522
2.54,-0.081832763,108.6956522
2.541,-0.076725217,108.6956522
2.542,-0.068425456,108.6956522
2.543,-0.057891142,108.6956522
2.544,-0.045122278,108.6956522
2.545,-0.031395749,108.6956522
2.546,-0.017349998,108.6956522
2.547,-0.004261912,108.6956522
2.548,0.006591623,108.6956522
2.549,0.015529828,108.6956522
2.55,0.020956595,108.6956522
2.551,0.023510368,108.6956522
2.552,0.023191146,108.6956522
2.553,0.020318152,108.6956522
2.554,0.015849049,108.6956522
2.555,0.010741504,108.6956522
2.556,0.006272401,108.6956522
2.557,0.00212252,108.6956522
2.558,0.00020719,108.6956522
2.559,0.001164855,108.6956522
2.56,0.004676293,108.6956522
2.561,0.011060725,108.6956522
2.562,0.020318152,108.6956522
2.563,0.031171687,108.6956522
2.564,0.043302108,108.6956522
2.565,0.055113307,108.6956522
2.566,0.066286064,108.6956522
2.567,0.075224269,108.6956522
2.568,0.081289479,108.6956522
2.569,0.083843252,108.6956522
2.57,0.082885587,108.6956522
2.571,0.078097263,108.6956522
2.572,0.06947828,108.6956522
2.573,0.05766708,108.6956522
2.574,0.043621329,108.6956522
2.575,0.028298692,108.6956522
2.576,0.012976055,108.6956522
2.577,-0.001388918,108.6956522
2.578,-0.014477004,108.6956522
2.579,-0.025330538,108.6956522
2.58,-0.033311079,108.6956522
2.581,-0.038737846,108.6956522
2.582,-0.041291619,108.6956522
2.583,-0.042249284,108.6956522
2.584,-0.04161084,108.6956522
2.585,-0.040653176,108.6956522
2.586,-0.040014732,108.6956522
2.587,-0.040653176,108.6956522
2.588,-0.04352617,108.6956522
2.589,-0.048952937,108.6956522
2.59,-0.056933478,112.3595506
2.591,-0.067467791,112.3595506
2.592,-0.079917434,112.3595506
2.593,-0.093643963,112.3595506
2.594,-0.107370492,112.3595506
2.595,-0.120458578,112.3595506
2.596,-0.131950556,112.3595506
2.597,-0.140888761,112.3595506
2.598,-0.14663475,112.3595506
2.599,-0.14855008,112.3595506
2.6,-0.14663475,112.3595506
2.601,-0.140888761,112.3595506
2.602,-0.132588999,112.3595506
2.603,-0.121735464,112.3595506
2.604,-0.109605043,112.3595506
2.605,-0.097793844,112.3595506
2.606,-0.086621087,112.3595506
2.607,-0.078002104,112.3595506
2.608,-0.071936893,112.3595506
2.609,-0.06938312,112.3595506
2.61,-0.070660007,112.3595506
2.611,-0.074809888,112.3595506
2.612,-0.081832763,112.3595506
2.613,-0.09109019,112.3595506
2.614,-0.10098606,112.3595506
2.615,-0.111201151,112.3595506
2.616,-0.120458578,112.3595506
2.617,-0.127481453,112.3595506
2.618,-0.131950556,112.3595506
2.619,-0.132908221,112.3595506
2.62,-0.130354448,112.3595506
2.621,-0.12492768,112.3595506
2.622,-0.116627919,112.3595506
2.623,-0.10705127,112.3595506
2.624,-0.096516957,112.3595506
2.625,-0.086301866,112.3595506
2.626,-0.077682882,112.3595506
2.627,-0.07129845,112.3595506
2.628,-0.067787012,112.3595506
2.629,-0.067467791,112.3595506
2.63,-0.070021564,112.3595506
2.631,-0.075767553,112.3595506
2.632,-0.08310965,112.3595506
2.633,-0.092047855,112.3595506
2.634,-0.101305281,112.3595506
2.635,-0.109605043,112.3595506
2.636,-0.116308697,112.3595506
2.637,-0.119820135,112.3595506
2.638,-0.119820135,112.3595506
2.639,-0.115351032,112.3595506
2.64,-0.106093606,112.3595506
2.641,-0.092047855,112.3595506
2.642,-0.073533001,112.3595506
2.643,-0.051187489,112.3595506
2.644,-0.026288203,112.3595506
2.645,0.000526412,112.3595506
2.646,0.027341027,112.3595506
2.647,0.053836421,112.3595506
2.648,0.079054928,112.3595506
2.649,0.102996549,112.3595506
2.65,0.12502284,112.3595506
2.651,0.145133801,112.3595506
2.652,0.163967876,112.3595506
2.653,0.181525065,112.3595506
2.654,0.198124588,112.3595506
2.655,0.214724112,112.3595506
2.656,0.231323636,112.3595506
2.657,0.248880824,112.3595506
2.658,0.267076456,112.3595506
2.659,0.285272088,112.3595506
2.66,0.303148498,112.3595506
2.661,0.319109578,112.3595506
2.662,0.332197664,112.3595506
2.663,0.341135869,112.3595506
2.664,0.344966529,112.3595506
2.665,0.343051199,112.3595506
2.666,0.335070659,112.3595506
2.667,0.320067243,112.3595506
2.668,0.298040952,112.3595506
2.669,0.269311007,112.3595506
2.67,0.234515852,112.3595506
2.671,0.194613151,112.3595506
2.672,0.151518233,112.3595506
2.673,0.106507986,112.3595506
2.674,0.061497739,112.3595506
2.675,0.018083601,112.3595506
2.676,-0.021819101,112.3595506
2.677,-0.057252699,112.3595506
2.678,-0.086621087,112.3595506
2.679,-0.109924265,112.3595506
2.68,-0.12684301,112.3595506
2.681,-0.137696545,112.3595506
2.682,-0.143123312,112.3595506
2.683,-0.145038642,112.3595506
2.684,-0.144080977,112.3595506
2.685,-0.142165647,112.3595506
2.686,-0.139931096,112.3595506
2.687,-0.13865421,112.3595506
2.688,-0.138973431,112.3595506
2.689,-0.141527204,112.3595506
2.69,-0.146315528,112.3595506
2.691,-0.152699961,112.3595506
2.692,-0.160042058,112.3595506
2.693,-0.168022598,112.3595506
2.694,-0.175045473,112.3595506
2.695,-0.180791462,112.3595506
2.696,-0.183983678,112.3595506
2.697,-0.1843029,112.3595506
2.698,-0.180472241,112.3595506
2.699,-0.172810922,112.3595506
2.7,-0.161957387,112.3595506
2.701,-0.147592415,112.3595506
2.702,-0.131631334,112.3595506
2.703,-0.114393367,112.3595506
2.704,-0.0971554,112.3595506
2.705,-0.080875098,112.3595506
2.706,-0.067148569,112.3595506
2.707,-0.056614256,112.3595506
2.708,-0.049591381,112.3595506
2.709,-0.046399165,112.3595506
2.71,-0.046718386,112.3595506
2.711,-0.050549045,112.3595506
2.712,-0.056933478,112.3595506
2.713,-0.064594796,112.3595506
2.714,-0.072894558,112.3595506
2.715,-0.080555877,112.3595506
2.716,-0.086621087,112.3595506
2.717,-0.090451747,112.3595506
2.718,-0.091409411,112.3595506
2.719,-0.089494082,112.3595506
2.72,-0.084705758,112.3595506
2.721,-0.078002104,112.3595506
2.722,-0.06938312,112.3595506
2.723,-0.060125694,112.3595506
2.724,-0.050868267,112.3595506
2.725,-0.043206948,112.3595506
2.726,-0.037141738,112.3595506
2.727,-0.0336303,112.3595506
2.728,-0.032672635,112.3595506
2.729,-0.034907187,112.3595506
2.73,-0.039376289,112.3595506
2.731,-0.0454415,112.3595506
2.732,-0.052783597,112.3595506
2.733,-0.060125694,112.3595506
2.734,-0.066510126,112.3595506
2.735,-0.07129845,112.3595506
2.736,-0.073533001,112.3595506
2.737,-0.072575337,112.3595506
2.738,-0.068425456,112.3595506
2.739,-0.061083359,112.3595506
2.74,-0.050868267,112.3595506
2.741,-0.038737846,112.3595506
2.742,-0.02564976,112.3595506
2.743,-0.012242452,112.3595506
2.744,-0.000112031,112.3595506
2.745,0.01010306,112.3595506
2.746,0.018083601,112.3595506
2.747,0.023191146,112.3595506
2.748,0.024787254,112.3595506
2.749,0.023510368,112.3595506
2.75,0.019679709,112.3595506
2.751,0.013295276,112.3595506
2.752,0.006272401,112.3595506
2.753,-0.001388918,112.3595506
2.754,-0.008731015,112.3595506
2.755,-0.014157782,112.3595506
2.756,-0.017349998,112.3595506
2.757,-0.017349998,112.3595506
2.758,-0.014477004,112.3595506
2.759,-0.008092571,112.3595506
2.76,0.000526412,112.3595506
2.761,0.010741504,112.3595506
2.762,0.02191426,112.3595506
2.763,0.033087016,112.3595506
2.764,0.043302108,112.3595506
2.765,0.051282648,112.3595506
2.766,0.057028637,112.3595506
2.767,0.05958241,112.3595506
2.768,0.058943967,112.3595506
2.769,0.055113307,112.3595506
2.77,0.049048097,112.3595506
2.771,0.041386778,112.3595506
2.772,0.033406238,112.3595506
2.773,0.025425698,112.3595506
2.774,0.018722044,112.3595506
2.775,0.01393372,112.3595506
2.776,0.01201839,112.3595506
2.777,0.012976055,112.3595506
2.778,0.017125936,112.3595506
2.779,0.024468033,112.3595506
2.78,0.034044681,112.3595506
2.781,0.045217437,112.3595506
2.782,0.057347859,112.3595506
2.783,0.068839836,112.3595506
2.784,0.079054928,112.3595506
2.785,0.086716247,112.3595506
2.786,0.091185349,112.3595506
2.787,0.092781457,112.3595506
2.788,0.090866128,112.3595506
2.789,0.086397025,112.3595506
2.79,0.079693371,112.3595506
2.791,0.071712831,112.3595506
2.792,0.063413069,112.3595506
2.793,0.055432529,112.3595506
2.794,0.049367318,112.3595506
2.795,0.045536659,112.3595506
2.796,0.044578994,112.3595506
2.797,0.047451989,112.3595506
2.798,0.053836421,112.3595506
2.799,0.063093847,112.3595506
2.8,0.074905047,112.3595506
2.801,0.087993133,112.3595506
2.802,0.101719662,112.3595506
2.803,0.114488527,112.3595506
2.804,0.125980505,112.3595506
2.805,0.13491871,112.3595506
2.806,0.14098392,112.3595506
2.807,0.143537693,112.3595506
2.808,0.142580028,112.3595506
2.809,0.138430147,112.3595506
2.81,0.132364937,112.3595506
2.811,0.12502284,112.3595506
2.812,0.117042299,112.3595506
2.813,0.109700202,112.3595506
2.814,0.104273435,112.3595506
2.815,0.101081219,112.3595506
2.816,0.101400441,112.3595506
2.817,0.104911878,112.3595506
2.818,0.112253975,112.3595506
2.819,0.122469067,112.3595506
2.82,0.135237931,112.3595506
2.821,0.149602904,112.3595506
2.822,0.164606319,112.3595506
2.823,0.17865207,112.3595506
2.824,0.191101713,112.3595506
2.825,0.201316804,112.3595506
2.826,0.20833968,112.3595506
2.827,0.212170339,112.3595506
2.828,0.212808782,112.3595506
2.829,0.210893453,112.3595506
2.83,0.207062793,112.3595506
2.831,0.202274469,112.3595506
2.832,0.196847702,112.3595506
2.833,0.192378599,112.3595506
2.834,0.189505605,112.3595506
2.835,0.188867162,112.3595506
2.836,0.191420934,112.3595506
2.837,0.197166923,112.3595506
2.838,0.206105129,112.3595506
2.839,0.217277885,112.3595506
2.84,0.230365971,112.3595506
2.841,0.243773278,112.3595506
2.842,0.257499808,112.3595506
2.843,0.269630229,112.3595506
2.844,0.279526099,112.3595506
2.845,0.286548974,112.3595506
2.846,0.290379633,112.3595506
2.847,0.290379633,112.3595506
2.848,0.287187417,112.3595506
2.849,0.281441428,112.3595506
2.85,0.273460888,112.3595506
2.851,0.264203461,112.3595506
2.852,0.255265256,112.3595506
2.853,0.246965495,112.3595506
2.854,0.240581062,112.3595506
2.855,0.237069625,112.3595506
2.856,0.236750403,112.3595506
2.857,0.239304176,112.3595506
2.858,0.245369386,112.3595506
2.859,0.253349927,112.3595506
2.86,0.263245797,112.3595506
2.861,0.273141667,112.3595506
2.862,0.282718315,112.3595506
2.863,0.290698855,112.3595506
2.864,0.296444844,112.3595506
2.865,0.298998617,112.3595506
2.866,0.298040952,112.3595506
2.867,0.29357185,112.3595506
2.868,0.286229753,112.3595506
2.869,0.276653104,112.3595506
2.87,0.265480348,112.3595506
2.871,0.253669148,112.3595506
2.872,0.242496392,112.3595506
2.873,0.232919744,112.3595506
2.874,0.225577647,112.3595506
2.875,0.221108544,112.3595506
2.876,0.219512436,112.3595506
2.877,0.221108544,112.3595506
2.878,0.225577647,112.3595506
2.879,0.232600522,112.3595506
2.88,0.240581062,112.3595506
2.881,0.249200046,112.3595506
2.882,0.256861364,112.3595506
2.883,0.262926575,112.3595506
2.884,0.266118791,112.3595506
2.885,0.266118791,112.3595506
2.886,0.262288132,112.3595506
2.887,0.255265256,112.3595506
2.888,0.245369386,112.3595506
2.889,0.233238965,179.1044776
2.89,0.219512436,179.1044776
2.891,0.205785907,179.1044776
2.892,0.192697821,179.1044776
2.893,0.181844286,179.1044776
2.894,0.173544524,179.1044776
2.895,0.169075422,179.1044776
2.896,0.167798535,179.1044776
2.897,0.170352308,179.1044776
2.898,0.176098297,179.1044776
2.899,0.184398059,179.1044776
2.9,0.193974707,179.1044776
2.901,0.203870577,179.1044776
2.902,0.213128004,179.1044776
2.903,0.220470101,179.1044776
2.904,0.225258425,179.1044776
2.905,0.226854533,179.1044776
2.906,0.225258425,179.1044776
2.907,0.219831658,179.1044776
2.908,0.211851118,179.1044776
2.909,0.201955248,179.1044776
2.91,0.190782491,179.1044776
2.911,0.179609735,179.1044776
2.912,0.169075422,179.1044776
2.913,0.16077566,179.1044776
2.914,0.155029671,179.1044776
2.915,0.15279512,179.1044776
2.916,0.153752785,179.1044776
2.917,0.157902666,179.1044776
2.918,0.164925541,179.1044776
2.919,0.173863746,179.1044776
2.92,0.184078837,179.1044776
2.921,0.193974707,179.1044776
2.922,0.202912912,179.1044776
2.923,0.210255009,179.1044776
2.924,0.21440489,179.1044776
2.925,0.215043334,179.1044776
2.926,0.212489561,179.1044776
2.927,0.206743572,179.1044776
2.928,0.198763032,179.1044776
2.929,0.188867162,179.1044776
2.93,0.178013627,179.1044776
2.931,0.167798535,179.1044776
2.932,0.158541109,179.1044776
2.933,0.151518233,179.1044776
2.934,0.147687574,179.1044776
2.935,0.147049131,179.1044776
2.936,0.149922125,179.1044776
2.937,0.155987336,179.1044776
2.938,0.164925541,179.1044776
2.939,0.175459854,179.1044776
2.94,0.18663261,179.1044776
2.941,0.197805367,179.1044776
2.942,0.207701237,179.1044776
2.943,0.215043334,179.1044776
2.944,0.219831658,179.1044776
2.945,0.221427766,179.1044776
2.946,0.219831658,179.1044776
2.947,0.215043334,179.1044776
2.948,0.207701237,179.1044776
2.949,0.198763032,179.1044776
2.95,0.189186383,179.1044776
2.951,0.179928957,179.1044776
2.952,0.171629195,179.1044776
2.953,0.165883206,179.1044776
2.954,0.163010211,179.1044776
2.955,0.163648654,179.1044776
2.956,0.167479314,179.1044776
2.957,0.174502189,179.1044776
2.958,0.183759616,179.1044776
2.959,0.194613151,179.1044776
2.96,0.205785907,179.1044776
2.961,0.21632022,179.1044776
2.962,0.225577647,179.1044776
2.963,0.232281301,179.1044776
2.964,0.235792738,179.1044776
2.965,0.235792738,179.1044776
2.966,0.232919744,179.1044776
2.967,0.227173755,179.1044776
2.968,0.219193215,179.1044776
2.969,0.209935788,179.1044776
2.97,0.200678361,179.1044776
2.971,0.191740156,179.1044776
2.972,0.184398059,179.1044776
2.973,0.179290513,179.1044776
2.974,0.177694405,179.1044776
2.975,0.178971292,179.1044776
2.976,0.184078837,179.1044776
2.977,0.191740156,179.1044776
2.978,0.201955248,179.1044776
2.979,0.213128004,179.1044776
2.98,0.224939203,179.1044776
2.981,0.235473517,179.1044776
2.982,0.244730943,179.1044776
2.983,0.251434597,179.1044776
2.984,0.255265256,179.1044776
2.985,0.2559037,179.1044776
2.986,0.253669148,179.1044776
2.987,0.248561603,179.1044776
2.988,0.241538727,179.1044776
2.989,0.233558187,179.1044776
2.99,0.225577647,179.1044776
2.991,0.21823555,179.1044776
2.992,0.212489561,179.1044776
2.993,0.209297345,179.1044776
2.994,0.208978123,179.1044776
2.995,0.211531896,179.1044776
2.996,0.217277885,179.1044776
2.997,0.225577647,179.1044776
2.998,0.235154295,179.1044776
2.999,0.245369386,179.1044776
3,0.255265256,179.1044776
3.001,0.26388424,179.1044776
3.002,0.270268672,179.1044776
3.003,0.27378011,179.1044776
3.004,0.27378011,179.1044776
3.005,0.270587894,179.1044776
3.006,0.264522683,179.1044776
3.007,0.255584478,179.1044776
3.008,0.245369386,179.1044776
3.009,0.234515852,179.1044776
3.01,0.223662317,179.1044776
3.011,0.21440489,179.1044776
3.012,0.207382015,179.1044776
3.013,0.202912912,179.1044776
3.014,0.201955248,179.1044776
3.015,0.20450902,179.1044776
3.016,0.209935788,179.1044776
3.017,0.21823555,179.1044776
3.018,0.228450641,179.1044776
3.019,0.239304176,179.1044776
3.02,0.249519267,179.1044776
3.021,0.258776694,179.1044776
3.022,0.265161126,179.1044776
3.023,0.268991786,179.1044776
3.024,0.269311007,179.1044776
3.025,0.266757234,179.1044776
3.026,0.261330467,179.1044776
3.027,0.25398837,179.1044776
3.028,0.245369386,179.1044776
3.029,0.23611196,179.1044776
3.03,0.227492976,179.1044776
3.031,0.220150879,179.1044776
3.032,0.215362555,179.1044776
3.033,0.213128004,179.1044776
3.034,0.21440489,179.1044776
3.035,0.218554771,179.1044776
3.036,0.225577647,179.1044776
3.037,0.234835073,179.1044776
3.038,0.245369386,179.1044776
3.039,0.256222921,179.1044776
3.04,0.266118791,179.1044776
3.041,0.274418553,179.1044776
3.042,0.27984532,179.1044776
3.043,0.282079872,179.1044776
3.044,0.281122207,179.1044776
3.045,0.276653104,179.1044776
3.046,0.269311007,179.1044776
3.047,0.259734359,179.1044776
3.048,0.249200046,179.1044776
3.049,0.238346511,179.1044776
3.05,0.228450641,179.1044776
3.051,0.220470101,179.1044776
3.052,0.215362555,179.1044776
3.053,0.213447226,179.1044776
3.054,0.215362555,179.1044776
3.055,0.220470101,179.1044776
3.056,0.228769863,179.1044776
3.057,0.239304176,179.1044776
3.058,0.251434597,179.1044776
3.059,0.26388424,179.1044776
3.06,0.275695439,179.1044776
3.061,0.286229753,179.1044776
3.062,0.294529514,179.1044776
3.063,0.299956282,179.1044776
3.064,0.302190833,179.1044776
3.065,0.301871611,179.1044776
3.066,0.298998617,179.1044776
3.067,0.294210293,179.1044776
3.068,0.288783525,179.1044776
3.069,0.283037536,179.1044776
3.07,0.278568434,179.1044776
3.071,0.275695439,179.1044776
3.072,0.275695439,179.1044776
3.073,0.278568434,179.1044776
3.074,0.284633644,179.1044776
3.075,0.293891071,179.1044776
3.076,0.305702271,179.1044776
3.077,0.319109578,179.1044776
3.078,0.333474551,179.1044776
3.079,0.347839523,179.1044776
3.08,0.360608388,179.1044776
3.081,0.371461922,179.1044776
3.082,0.379442462,179.1044776
3.083,0.384230787,179.1044776
3.084,0.386146116,179.1044776
3.085,0.38486923,179.1044776
3.086,0.381357792,179.1044776
3.087,0.376250246,179.1044776
3.088,0.370823479,179.1044776
3.089,0.365715933,179.1044776
3.09,0.361885274,179.1044776
3.091,0.359969944,179.1044776
3.092,0.360927609,179.1044776
3.093,0.364758268,179.1044776
3.094,0.371781144,179.1044776
3.095,0.381357792,179.1044776
3.096,0.393488213,179.1044776
3.097,0.406895521,179.1044776
3.098,0.42062205,179.1044776
3.099,0.433390914,179.1044776
3.1,0.443925228,179.1044776
3.101,0.451586546,179.1044776
3.102,0.456055649,179.1044776
3.103,0.45637487,179.1044776
3.104,0.453182654,179.1044776
3.105,0.446479,179.1044776
3.106,0.437221574,179.1044776
3.107,0.426048817,179.1044776
3.108,0.413599175,179.1044776
3.109,0.401149532,179.1044776
3.11,0.389338332,179.1044776
3.111,0.379442462,179.1044776
3.112,0.371781144,179.1044776
3.113,0.366673598,179.1044776
3.114,0.364439047,179.1044776
3.115,0.364439047,179.1044776
3.116,0.366354376,179.1044776
3.117,0.368908149,179.1044776
3.118,0.371461922,179.1044776
3.119,0.37305803,179.1044776
3.12,0.372419587,179.1044776
3.121,0.368908149,179.1044776
3.122,0.362523717,179.1044776
3.123,0.352947069,179.1044776
3.124,0.340178205,179.1044776
3.125,0.324855567,179.1044776
3.126,0.3076176,179.1044776
3.127,0.28974119,179.1044776
3.128,0.27186478,179.1044776
3.129,0.255584478,179.1044776
3.13,0.241538727,179.1044776
3.131,0.230685192,179.1044776
3.132,0.223662317,179.1044776
3.133,0.220789323,179.1044776
3.134,0.221746987,179.1044776
3.135,0.22621609,179.1044776
3.136,0.233238965,179.1044776
3.137,0.24217717,179.1044776
3.138,0.251434597,179.1044776
3.139,0.260053581,179.1044776
3.14,0.267395678,179.1044776
3.141,0.27186478,179.1044776
3.142,0.27378011,179.1044776
3.143,0.272184002,179.1044776
3.144,0.268034121,179.1044776
3.145,0.261011245,179.1044776
3.146,0.252392262,179.1044776
3.147,0.242815614,179.1044776
3.148,0.233238965,179.1044776
3.149,0.224619982,179.1044776
3.15,0.217916328,179.1044776
3.151,0.213766447,179.1044776
3.152,0.212489561,179.1044776
3.153,0.214724112,179.1044776
3.154,0.219512436,179.1044776
3.155,0.227173755,179.1044776
3.156,0.23611196,179.1044776
3.157,0.24600783,179.1044776
3.158,0.255584478,179.1044776
3.159,0.264203461,179.1044776
3.16,0.270587894,179.1044776
3.161,0.274099331,179.1044776
3.162,0.274418553,179.1044776
3.163,0.271226337,179.1044776
3.164,0.265161126,179.1044776
3.165,0.256542143,179.1044776
3.166,0.246646273,179.1044776
3.167,0.23611196,179.1044776
3.168,0.226854533,179.1044776
3.169,0.219193215,179.1044776
3.17,0.214085669,179.1044776
3.171,0.212808782,179.1044776
3.172,0.215362555,179.1044776
3.173,0.221427766,179.1044776
3.174,0.231323636,179.1044776
3.175,0.2440925,179.1044776
3.176,0.259415137,179.1044776
3.177,0.276333883,179.1044776
3.178,0.294529514,179.1044776
3.179,0.312725146,179.1044776
3.18,0.330601556,179.1044776
3.181,0.347520302,179.1044776
3.182,0.362842939,179.1044776
3.183,0.376569468,179.1044776
3.184,0.389338332,179.1044776
3.185,0.401787975,179.1044776
3.186,0.414237618,179.1044776
3.187,0.428283369,179.1044776
3.188,0.443925228,179.1044776
3.189,0.462120859,179.1044776
3.19,0.483508707,179.1044776
3.191,0.507769549,179.1044776
3.192,0.535222608,179.1044776
3.193,0.565229439,179.1044776
3.194,0.596513157,179.1044776
3.195,0.628116096,179.1044776
3.196,0.658122928,179.1044776
3.197,0.6842991,179.1044776
3.198,0.705048504,179.1044776
3.199,0.718455812,179.1044776
3.2,0.723882579,179.1044776
3.201,0.720690363,179.1044776
3.202,0.708559942,179.1044776
3.203,0.688129759,179.1044776
3.204,0.660038257,179.1044776
3.205,0.625562323,179.1044776
3.206,0.585978844,179.1044776
3.207,0.542883927,179.1044776
3.208,0.497554458,179.1044776
3.209,0.452224989,179.1044776
3.21,0.408491629,179.1044776
3.211,0.367631263,179.1044776
3.212,0.330282335,179.1044776
3.213,0.29772173,179.1044776
3.214,0.26994945,179.1044776
3.215,0.246965495,179.1044776
3.216,0.22813142,179.1044776
3.217,0.212489561,179.1044776
3.218,0.200039918,179.1044776
3.219,0.188867162,179.1044776
3.22,0.17865207,179.1044776
3.221,0.1687562,179.1044776
3.222,0.158541109,179.1044776
3.223,0.148006796,179.1044776
3.224,0.137153261,179.1044776
3.225,0.126299726,179.1044776
3.226,0.116403856,179.1044776
3.227,0.107465651,179.1044776
3.228,0.100761997,179.1044776
3.229,0.096931338,179.1044776
3.23,0.096292895,179.1044776
3.231,0.099485111,179.1044776
3.232,0.106507986,179.1044776
3.233,0.116403856,179.1044776
3.234,0.129491942,179.1044776
3.235,0.144176136,179.1044776
3.236,0.159498774,179.1044776
3.237,0.174502189,179.1044776
3.238,0.188228718,179.1044776
3.239,0.199720696,179.1044776
3.24,0.208020458,179.1044776
3.241,0.212808782,179.1044776
3.242,0.214085669,179.1044776
3.243,0.212489561,179.1044776
3.244,0.208020458,179.1044776
3.245,0.201955248,179.1044776
3.246,0.194932372,179.1044776
3.247,0.187909497,179.1044776
3.248,0.181844286,179.1044776
3.249,0.177694405,179.1044776
3.25,0.175779076,179.1044776
3.251,0.177055962,179.1044776
3.252,0.181205843,179.1044776
3.253,0.188228718,179.1044776
3.254,0.197166923,179.1044776
3.255,0.207382015,179.1044776
3.256,0.217916328,179.1044776
3.257,0.227492976,179.1044776
3.258,0.235473517,179.1044776
3.259,0.240581062,179.1044776
3.26,0.242496392,179.1044776
3.261,0.241538727,179.1044776
3.262,0.237069625,179.1044776
3.263,0.230046749,179.1044776
3.264,0.221108544,179.1044776
3.265,0.210574231,179.1044776
3.266,0.199720696,179.1044776
3.267,0.189505605,179.1044776
3.268,0.181205843,179.1044776
3.269,0.175459854,179.1044776
3.27,0.172906081,179.1044776
3.271,0.174502189,179.1044776
3.272,0.179609735,179.1044776
3.273,0.187590275,179.1044776
3.274,0.198124588,179.1044776
3.275,0.209935788,179.1044776
3.276,0.222385431,179.1044776
3.277,0.233877409,179.1044776
3.278,0.2440925,179.1044776
3.279,0.251434597,179.1044776
3.28,0.255584478,179.1044776
3.281,0.256222921,179.1044776
3.282,0.25398837,179.1044776
3.283,0.248561603,179.1044776
3.284,0.241538727,179.1044776
3.285,0.232919744,179.1044776
3.286,0.22430076,179.1044776
3.287,0.216000998,179.1044776
3.288,0.209616566,179.1044776
3.289,0.205785907,179.1044776
3.29,0.204828242,179.1044776
3.291,0.207062793,179.1044776
3.292,0.212808782,179.1044776
3.293,0.221108544,179.1044776
3.294,0.231323636,179.1044776
3.295,0.242815614,179.1044776
3.296,0.25398837,179.1044776
3.297,0.264203461,179.1044776
3.298,0.272184002,179.1044776
3.299,0.277610769,179.1044776
3.3,0.27984532,179.1044776
3.301,0.279206877,179.1044776
3.302,0.275376218,179.1044776
3.303,0.268991786,179.1044776
3.304,0.261011245,179.1044776
3.305,0.25207304,179.1044776
3.306,0.243773278,179.1044776
3.307,0.236431181,179.1044776
3.308,0.231004414,179.1044776
3.309,0.228450641,179.1044776
3.31,0.229408306,179.1044776
3.311,0.233558187,179.1044776
3.312,0.241219506,179.1044776
3.313,0.251434597,179.1044776
3.314,0.263245797,179.1044776
3.315,0.275695439,179.1044776
3.316,0.287825861,179.1044776
3.317,0.298360174,179.1044776
3.318,0.306659936,179.1044776
3.319,0.311767481,179.1044776
3.32,0.313682811,179.1044776
3.321,0.312086703,179.1044776
3.322,0.307298379,179.1044776
3.323,0.300275503,179.1044776
3.324,0.291337298,179.1044776
3.325,0.28176065,179.1044776
3.326,0.272503223,179.1044776
3.327,0.264522683,179.1044776
3.328,0.258776694,179.1044776
3.329,0.2559037,179.1044776
3.33,0.256222921,179.1044776
3.331,0.260053581,179.1044776
3.332,0.266757234,179.1044776
3.333,0.276333883,179.1044776
3.334,0.287187417,179.1044776
3.335,0.298998617,179.1044776
3.336,0.310490595,179.1044776
3.337,0.320386465,179.1044776
3.338,0.327728562,179.1044776
3.339,0.332197664,179.1044776
3.34,0.333474551,179.1044776
3.341,0.331878443,179.1044776
3.342,0.32740934,179.1044776
3.343,0.321024908,179.1044776
3.344,0.313682811,179.1044776
3.345,0.306021492,179.1044776
3.346,0.298998617,179.1044776
3.347,0.293891071,179.1044776
3.348,0.291337298,179.1044776
3.349,0.29165652,179.1044776
3.35,0.295487179,179.1044776
3.351,0.302510055,179.1044776
3.352,0.312405924,179.1044776
3.353,0.324536346,179.1044776
3.354,0.337943653,179.1044776
3.355,0.351350961,179.1044776
3.356,0.363800604,179.1044776
3.357,0.374654138,179.1044776
3.358,0.382634679,179.1044776
3.359,0.387742224,179.1044776
3.36,0.389019111,179.1044776
3.361,0.387423003,179.1044776
3.362,0.3829539,179.1044776
3.363,0.376569468,179.1044776
3.364,0.369546593,179.1044776
3.365,0.362204496,179.1044776
3.366,0.356139285,179.1044776
3.367,0.351670182,179.1044776
3.368,0.350074074,179.1044776
3.369,0.351670182,179.1044776
3.37,0.356777728,179.1044776
3.371,0.36507749,179.1044776
3.372,0.376250246,179.1044776
3.373,0.389019111,179.1044776
3.374,0.403064862,179.1044776
3.375,0.416472169,179.1044776
3.376,0.428921812,179.1044776
3.377,0.438817682,179.1044776
3.378,0.445840557,179.1044776
3.379,0.449351995,179.1044776
3.38,0.449032773,179.1044776
3.381,0.445521336,179.1044776
3.382,0.439136903,179.1044776
3.383,0.430837142,179.1044776
3.384,0.421260493,179.1044776
3.385,0.411364623,179.1044776
3.386,0.40274564,179.1044776
3.387,0.395722765,179.1044776
3.388,0.391572884,179.1044776
3.389,0.390295997,179.1044776
3.39,0.392211327,179.1044776
3.391,0.396999651,179.1044776
3.392,0.404022526,179.1044776
3.393,0.41264151,179.1044776
3.394,0.421898937,179.1044776
3.395,0.43051792,179.1044776
3.396,0.437540795,179.1044776
3.397,0.442009898,179.1044776
3.398,0.443606006,179.1044776
3.399,0.441371455,179.1044776
3.4,0.435944687,179.1044776
3.401,0.427325704,179.1044776
3.402,0.416152948,179.1044776
3.403,0.403384083,179.1044776
3.404,0.389976776,179.1044776
3.405,0.37688869,179.1044776
3.406,0.36507749,179.1044776
3.407,0.355820063,179.1044776
3.408,0.34911641,179.1044776
3.409,0.345604972,179.1044776
3.41,0.34528575,179.1044776
3.411,0.348158745,179.1044776
3.412,0.352947069,179.1044776
3.413,0.359012279,179.1044776
3.414,0.365715933,179.1044776
3.415,0.372100365,179.1044776
3.416,0.376569468,179.1044776
3.417,0.378804019,179.1044776
3.418,0.378165576,179.1044776
3.419,0.374015695,179.1044776
3.42,0.36699282,179.1044776
3.421,0.356777728,179.1044776
3.422,0.344647307,179.1044776
3.423,0.330920778,179.1044776
3.424,0.316875027,179.1044776
3.425,0.303786941,179.1044776
3.426,0.292294963,179.1044776
3.427,0.283356758,179.1044776
3.428,0.277610769,179.1044776
3.429,0.275056996,179.1044776
3.43,0.276014661,179.1044776
3.431,0.279526099,179.1044776
3.432,0.285591309,179.1044776
3.433,0.292294963,179.1044776
3.434,0.299317838,179.1044776
3.435,0.305383049,179.1044776
3.436,0.309852152,179.1044776
3.437,0.311767481,179.1044776
3.438,0.310490595,179.1044776
3.439,0.306340714,179.1044776
3.44,0.298998617,179.1044776
3.441,0.289102747,179.1044776
3.442,0.277291547,179.1044776
3.443,0.264522683,179.1044776
3.444,0.25207304,179.1044776
3.445,0.240581062,179.1044776
3.446,0.231004414,179.1044776
3.447,0.224619982,179.1044776
3.448,0.221108544,179.1044776
3.449,0.221427766,179.1044776
3.45,0.224619982,179.1044776
3.451,0.230365971,179.1044776
3.452,0.237708068,179.1044776
3.453,0.24600783,179.1044776
3.454,0.25398837,179.1044776
3.455,0.260692024,179.1044776
3.456,0.265480348,179.1044776
3.457,0.267076456,179.1044776
3.458,0.26579957,179.1044776
3.459,0.260692024,179.1044776
3.46,0.252711484,179.1044776
3.461,0.24217717,179.1044776
3.462,0.229727528,179.1044776
3.463,0.216639442,179.1044776
3.464,0.203870577,179.1044776
3.465,0.192378599,179.1044776
3.466,0.183121173,179.1044776
3.467,0.176417519,179.1044776
3.468,0.173225303,179.1044776
3.469,0.173544524,179.1044776
3.47,0.177055962,179.1044776
3.471,0.182801951,179.1044776
3.472,0.190782491,179.1044776
3.473,0.199401475,179.1044776
3.474,0.207701237,179.1044776
3.475,0.215043334,179.1044776
3.476,0.219831658,179.1044776
3.477,0.222066209,179.1044776
3.478,0.220789323,179.1044776
3.479,0.216639442,179.1044776
3.48,0.209616566,179.1044776
3.481,0.20035914,179.1044776
3.482,0.190144048,179.1044776
3.483,0.179290513,179.1044776
3.484,0.169394643,179.1044776
3.485,0.161094882,179.1044776
3.486,0.155348893,179.1044776
3.487,0.15279512,179.1044776
3.488,0.153752785,179.1044776
3.489,0.157902666,179.1044776
3.49,0.164925541,179.1044776
3.491,0.174502189,179.1044776
3.492,0.185036502,179.1044776
3.493,0.195890037,179.1044776
3.494,0.206105129,179.1044776
3.495,0.214724112,179.1044776
3.496,0.220789323,179.1044776
3.497,0.223981539,179.1044776
3.498,0.223981539,179.1044776
3.499,0.220789323,179.1044776
3.5,0.214724112,179.1044776
3.501,0.20642435,179.1044776
3.502,0.197166923,179.1044776
3.503,0.187590275,179.1044776
3.504,0.179290513,179.1044776
3.505,0.172267638,179.1044776
3.506,0.168117757,179.1044776
3.507,0.167160092,179.1044776
3.508,0.169394643,179.1044776
3.509,0.174821411,179.1044776
3.51,0.183121173,179.1044776
3.511,0.193655486,179.1044776
3.512,0.205466685,179.1044776
3.513,0.216958663,179.1044776
3.514,0.227492976,179.1044776
3.515,0.23611196,179.1044776
3.516,0.241538727,179.1044776
3.517,0.243773278,179.1044776
3.518,0.24217717,179.1044776
3.519,0.237708068,179.1044776
3.52,0.230046749,179.1044776
3.521,0.220789323,179.1044776
3.522,0.210255009,179.1044776
3.523,0.200039918,179.1044776
3.524,0.190782491,179.1044776
3.525,0.183759616,179.1044776
3.526,0.178971292,179.1044776
3.527,0.177694405,179.1044776
3.528,0.179928957,179.1044776
3.529,0.185355724,179.1044776
3.53,0.193336264,179.1044776
3.531,0.203232134,179.1044776
3.532,0.214085669,179.1044776
3.533,0.224939203,179.1044776
3.534,0.234835073,179.1044776
3.535,0.24217717,179.1044776
3.536,0.246646273,179.1044776
3.537,0.247923159,179.1044776
3.538,0.24600783,179.1044776
3.539,0.240581062,179.1044776
3.54,0.232600522,179.1044776
3.541,0.223023874,179.1044776
3.542,0.212489561,179.1044776
3.543,0.201955248,179.1044776
3.544,0.192697821,179.1044776
3.545,0.185355724,179.1044776
3.546,0.180886621,179.1044776
3.547,0.179290513,179.1044776
3.548,0.181205843,179.1044776
3.549,0.185674946,179.1044776
3.55,0.192697821,179.1044776
3.551,0.201316804,179.1044776
3.552,0.210255009,179.1044776
3.553,0.218873993,179.1044776
3.554,0.225896868,179.1044776
3.555,0.230685192,179.1044776
3.556,0.232600522,179.1044776
3.557,0.231004414,179.1044776
3.558,0.22621609,179.1044776
3.559,0.218554771,179.1044776
3.56,0.208658901,179.1044776
3.561,0.197486145,179.1044776
3.562,0.185674946,179.1044776
3.563,0.174502189,179.1044776
3.564,0.164606319,179.1044776
3.565,0.157264222,179.1044776
3.566,0.152475898,179.1044776
3.567,0.151199012,179.1044776
3.568,0.153433563,179.1044776
3.569,0.158221887,179.1044776
3.57,0.165244763,179.1044776
3.571,0.173863746,179.1044776
3.572,0.182482729,179.1044776
3.573,0.19046327,179.1044776
3.574,0.196847702,179.1044776
3.575,0.20035914,179.1044776
3.576,0.200997583,179.1044776
3.577,0.19844381,179.1044776
3.578,0.192697821,179.1044776
3.579,0.184078837,179.1044776
3.58,0.173863746,179.1044776
3.581,0.163010211,179.1044776
3.582,0.151837455,179.1044776
3.583,0.141941585,179.1044776
3.584,0.133641823,179.1044776
3.585,0.128534277,179.1044776
3.586,0.126618948,179.1044776
3.587,0.128215056,179.1044776
3.588,0.132684158,179.1044776
3.589,0.140345477,179.1044776
3.59,0.149602904,179.1044776
3.591,0.160137217,179.1044776
3.592,0.170352308,179.1044776
3.593,0.179609735,179.1044776
3.594,0.18663261,179.1044776
3.595,0.191101713,179.1044776
3.596,0.192059378,179.1044776
3.597,0.189824826,179.1044776
3.598,0.184078837,179.1044776
3.599,0.175459854,179.1044776
3.6,0.165244763,179.1044776
3.601,0.153752785,179.1044776
3.602,0.142260807,179.1044776
3.603,0.132364937,179.1044776
3.604,0.124384397,179.1044776
3.605,0.119276851,179.1044776
3.606,0.118319186,179.1044776
3.607,0.12119218,179.1044776
3.608,0.127576613,179.1044776
3.609,0.137153261,179.1044776
3.61,0.14896446,179.1044776
3.611,0.161733325,179.1044776
3.612,0.174502189,179.1044776
3.613,0.186313389,179.1044776
3.614,0.195890037,179.1044776
3.615,0.202912912,179.1044776
3.616,0.206743572,179.1044776
3.617,0.207382015,179.1044776
3.618,0.204828242,179.1044776
3.619,0.199720696,179.1044776
3.62,0.192697821,179.1044776
3.621,0.185036502,179.1044776
3.622,0.177375184,179.1044776
3.623,0.171309973,179.1044776
3.624,0.167479314,179.1044776
3.625,0.166521649,179.1044776
3.626,0.1687562,179.1044776
3.627,0.174182968,179.1044776
3.628,0.182482729,179.1044776
3.629,0.193655486,179.1044776
3.63,0.206105129,179.1044776
3.631,0.219512436,179.1044776
3.632,0.232919744,179.1044776
3.633,0.244730943,179.1044776
3.634,0.254307592,179.1044776
3.635,0.260692024,179.1044776
3.636,0.26388424,179.1044776
3.637,0.26388424,179.1044776
3.638,0.260692024,179.1044776
3.639,0.255265256,179.1044776
3.64,0.248561603,179.1044776
3.641,0.240900284,179.1044776
3.642,0.233877409,179.1044776
3.643,0.22813142,179.1044776
3.644,0.22430076,179.1044776
3.645,0.223343095,179.1044776
3.646,0.225258425,179.1044776
3.647,0.230365971,179.1044776
3.648,0.238027289,179.1044776
3.649,0.247284716,179.1044776
3.65,0.257499808,179.1044776
3.651,0.267395678,179.1044776
3.652,0.276014661,179.1044776
3.653,0.282718315,179.1044776
3.654,0.285910531,179.1044776
3.655,0.285910531,179.1044776
3.656,0.282079872,179.1044776
3.657,0.274418553,179.1044776
3.658,0.263245797,179.1044776
3.659,0.249519267,179.1044776
3.66,0.233877409,179.1044776
3.661,0.217597106,179.1044776
3.662,0.201316804,179.1044776
3.663,0.18663261,179.1044776
3.664,0.174182968,179.1044776
3.665,0.164606319,179.1044776
3.666,0.158221887,179.1044776
3.667,0.154710449,179.1044776
3.668,0.154391228,179.1044776
3.669,0.155668114,179.1044776
3.67,0.157902666,179.1044776
3.671,0.160137217,179.1044776
3.672,0.161414103,179.1044776
3.673,0.160456438,179.1044776
3.674,0.157264222,179.1044776
3.675,0.15087979,179.1044776
3.676,0.141622363,179.1044776
3.677,0.129811164,179.1044776
3.678,0.115765413,179.1044776
3.679,0.100442776,121.703854
3.68,0.084800917,121.703854
3.681,0.06947828,121.703854
3.682,0.055432529,121.703854
3.683,0.044259773,121.703854
3.684,0.035960011,121.703854
3.685,0.031490908,121.703854
3.686,0.030852465,121.703854
3.687,0.033725459,121.703854
3.688,0.039471448,121.703854
3.689,0.047451989,121.703854
3.69,0.056390194,121.703854
3.691,0.065328399,121.703854
3.692,0.072989717,121.703854
3.693,0.078416485,121.703854
3.694,0.080970258,121.703854
3.695,0.080012593,121.703854
3.696,0.076181933,121.703854
3.697,0.068839836,121.703854
3.698,0.059263188,121.703854
3.699,0.048409653,121.703854
3.7,0.036598454,121.703854
3.701,0.025106476,121.703854
3.702,0.015210606,121.703854
3.703,0.007549287,121.703854
3.704,0.003080185,121.703854
3.705,0.001803298,121.703854
3.706,0.003718628,121.703854
3.707,0.008506952,121.703854
3.708,0.015849049,121.703854
3.709,0.024787254,121.703854
3.71,0.034363903,180.1801802
3.711,0.043302108,180.1801802
3.712,0.050644205,180.1801802
3.713,0.05575175,180.1801802
3.714,0.057986302,180.1801802
3.715,0.057028637,180.1801802
3.716,0.053517199,180.1801802
3.717,0.047132767,180.1801802
3.718,0.039152227,180.1801802
3.719,0.030214022,180.1801802
3.72,0.021275817,180.1801802
3.721,0.013614498,180.1801802
3.722,0.008187731,180.1801802
3.723,0.006591623,180.1801802
3.724,0.008506952,180.1801802
3.725,0.015210606,180.1801802
3.726,0.027341027,180.1801802
3.727,0.043940551,180.1801802
3.728,0.065009177,180.1801802
3.729,0.089270019,180.1801802
3.73,0.116084635,180.1801802
3.731,0.143856915,180.1801802
3.732,0.171948416,180.1801802
3.733,0.199401475,180.1801802
3.734,0.225577647,180.1801802
3.735,0.249838489,180.1801802
3.736,0.27186478,180.1801802
3.737,0.29165652,180.1801802
3.738,0.309213708,180.1801802
3.739,0.324855567,180.1801802
3.74,0.33922054,180.1801802
3.741,0.352947069,180.1801802
3.742,0.366673598,180.1801802
3.743,0.381038571,180.1801802
3.744,0.395084321,180.1801802
3.745,0.408172407,180.1801802
3.746,0.419025942,180.1801802
3.747,0.426687261,180.1801802
3.748,0.430198698,180.1801802
3.749,0.42860259,180.1801802
3.75,0.421579715,180.1801802
3.751,0.408172407,180.1801802
3.752,0.388380668,180.1801802
3.753,0.361885274,180.1801802
3.754,0.328367005,180.1801802
3.755,0.288783525,180.1801802
3.756,0.243773278,180.1801802
3.757,0.194932372,180.1801802
3.758,0.143218471,180.1801802
3.759,0.091185349,180.1801802
3.76,0.040109892,180.1801802
3.761,-0.00777335,180.1801802
3.762,-0.051187489,180.1801802
3.763,-0.088855639,180.1801802
3.764,-0.119181692,180.1801802
3.765,-0.142484869,180.1801802
3.766,-0.158445949,180.1801802
3.767,-0.167703376,180.1801802
3.768,-0.171214814,180.1801802
3.769,-0.170576371,180.1801802
3.77,-0.166745711,180.1801802
3.771,-0.160999722,180.1801802
3.772,-0.155253733,180.1801802
3.773,-0.149826966,180.1801802
3.774,-0.145677085,180.1801802
3.775,-0.143761755,180.1801802
3.776,-0.143123312,180.1801802
3.777,-0.144080977,180.1801802
3.778,-0.145677085,180.1801802
3.779,-0.147592415,180.1801802
3.78,-0.148869301,180.1801802
3.781,-0.14855008,180.1801802
3.782,-0.145996307,180.1801802
3.783,-0.140569539,180.1801802
3.784,-0.131950556,180.1801802
3.785,-0.120139356,180.1801802
3.786,-0.106093606,180.1801802
3.787,-0.090132525,180.1801802
3.788,-0.073533001,180.1801802
3.789,-0.056933478,180.1801802
3.79,-0.04161084,180.1801802
3.791,-0.028522754,180.1801802
3.792,-0.018626885,180.1801802
3.793,-0.012561674,180.1801802
3.794,-0.010646344,180.1801802
3.795,-0.012242452,180.1801802
3.796,-0.017349998,180.1801802
3.797,-0.025330538,180.1801802
3.798,-0.034907187,180.1801802
3.799,-0.0454415,180.1801802
3.8,-0.055656591,180.1801802
3.801,-0.064275575,180.1801802
3.802,-0.070660007,180.1801802
3.803,-0.073852223,180.1801802
3.804,-0.073533001,180.1801802
3.805,-0.069702342,180.1801802
3.806,-0.062998688,180.1801802
3.807,-0.053741262,180.1801802
3.808,-0.042887727,180.1801802
3.809,-0.031714971,180.1801802
3.81,-0.021499879,180.1801802
3.811,-0.012561674,180.1801802
3.812,-0.006177242,180.1801802
3.813,-0.002665804,180.1801802
3.814,-0.002665804,180.1801802
3.815,-0.005538799,180.1801802
3.816,-0.011284788,180.1801802
3.817,-0.018946106,180.1801802
3.818,-0.02756509,180.1801802
3.819,-0.036503295,180.1801802
3.82,-0.044803057,180.1801802
3.821,-0.050868267,180.1801802
3.822,-0.054698926,180.1801802
3.823,-0.05533737,180.1801802
3.824,-0.053102818,180.1801802
3.825,-0.047356829,180.1801802
3.826,-0.039057068,180.1801802
3.827,-0.028841976,180.1801802
3.828,-0.017988441,180.1801802
3.829,-0.006815685,180.1801802
3.83,0.003080185,180.1801802
3.831,0.010741504,180.1801802
3.832,0.015529828,180.1801802
3.833,0.017445157,180.1801802
3.834,0.015849049,180.1801802
3.835,0.011060725,180.1801802
3.836,0.004357071,180.1801802
3.837,-0.004581134,180.1801802
3.838,-0.014157782,180.1801802
3.839,-0.023415209,180.1801802
3.84,-0.031714971,180.1801802
3.841,-0.037460959,180.1801802
3.842,-0.040653176,180.1801802
3.843,-0.040653176,180.1801802
3.844,-0.037141738,180.1801802
3.845,-0.031076527,180.1801802
3.846,-0.022457544,180.1801802
3.847,-0.011923231,180.1801802
3.848,-0.001069696,180.1801802
3.849,0.009464617,180.1801802
3.85,0.019041265,180.1801802
3.851,0.026064141,180.1801802
3.852,0.030533243,180.1801802
3.853,0.031490908,180.1801802
3.854,0.029256357,180.1801802
3.855,0.02382959,180.1801802
3.856,0.016168271,180.1801802
3.857,0.006591623,180.1801802
3.858,-0.002985026,180.1801802
3.859,-0.012880896,180.1801802
3.86,-0.021180657,180.1801802
3.861,-0.027245868,180.1801802
3.862,-0.030118862,180.1801802
3.863,-0.029480419,180.1801802
3.864,-0.025968982,180.1801802
3.865,-0.019265328,180.1801802
3.866,-0.010327123,180.1801802
3.867,-0.000112031,180.1801802
3.868,0.01010306,180.1801802
3.869,0.020318152,180.1801802
3.87,0.028617914,180.1801802
3.871,0.035002346,180.1801802
3.872,0.038513784,180.1801802
3.873,0.038833005,180.1801802
3.874,0.035960011,180.1801802
3.875,0.030852465,180.1801802
3.876,0.02382959,180.1801802
3.877,0.015529828,180.1801802
3.878,0.007230066,180.1801802
3.879,0.00020719,180.1801802
3.88,-0.005538799,180.1801802
3.881,-0.008731015,180.1801802
3.882,-0.008411793,180.1801802
3.883,-0.004900355,180.1801802
3.884,0.00212252,180.1801802
3.885,0.011379947,180.1801802
3.886,0.023191146,180.1801802
3.887,0.036279232,180.1801802
3.888,0.049367318,180.1801802
3.889,0.061497739,180.1801802
3.89,0.072032053,180.1801802
3.891,0.079693371,180.1801802
3.892,0.084481695,180.1801802
3.893,0.085758582,180.1801802
3.894,0.083843252,180.1801802
3.895,0.07937415,180.1801802
3.896,0.073308939,180.1801802
3.897,0.065966842,180.1801802
3.898,0.058943967,180.1801802
3.899,0.052878756,180.1801802
3.9,0.048728875,180.1801802
3.901,0.047451989,180.1801802
3.902,0.049048097,180.1801802
3.903,0.054155642,180.1801802
3.904,0.062455404,180.1801802
3.905,0.073628161,180.1801802
3.906,0.086397025,180.1801802
3.907,0.100123554,180.1801802
3.908,0.114169305,180.1801802
3.909,0.127257391,180.1801802
3.91,0.138110926,180.1801802
3.911,0.146729909,180.1801802
3.912,0.151837455,180.1801802
3.913,0.153752785,180.1801802
3.914,0.15279512,180.1801802
3.915,0.149602904,180.1801802
3.916,0.14481458,180.1801802
3.917,0.139387812,180.1801802
3.918,0.133961045,180.1801802
3.919,0.130130385,180.1801802
3.92,0.127895834,180.1801802
3.921,0.128215056,180.1801802
3.922,0.131726494,180.1801802
3.923,0.138110926,180.1801802
3.924,0.147368352,180.1801802
3.925,0.15886033,180.1801802
3.926,0.171309973,180.1801802
3.927,0.184078837,180.1801802
3.928,0.195890037,180.1801802
3.929,0.205785907,180.1801802
3.93,0.212808782,180.1801802
3.931,0.216639442,180.1801802
3.932,0.216639442,180.1801802
3.933,0.213128004,180.1801802
3.934,0.20642435,180.1801802
3.935,0.197166923,180.1801802
3.936,0.186313389,180.1801802
3.937,0.174821411,180.1801802
3.938,0.163648654,180.1801802
3.939,0.154072006,180.1801802
3.94,0.146410688,180.1801802
3.941,0.141622363,180.1801802
3.942,0.140026255,180.1801802
3.943,0.141622363,180.1801802
3.944,0.145772244,180.1801802
3.945,0.152156677,180.1801802
3.946,0.159817995,180.1801802
3.947,0.167798535,180.1801802
3.948,0.175140632,180.1801802
3.949,0.1805674,180.1801802
3.95,0.183121173,180.1801802
3.951,0.182801951,180.1801802
3.952,0.178971292,180.1801802
3.953,0.171948416,180.1801802
3.954,0.161733325,180.1801802
3.955,0.149922125,180.1801802
3.956,0.136834039,180.1801802
3.957,0.123426732,180.1801802
3.958,0.110338646,180.1801802
3.959,0.099165889,180.1801802
3.96,0.089908463,180.1801802
3.961,0.084162474,180.1801802
3.962,0.081289479,180.1801802
3.963,0.081608701,180.1801802
3.964,0.084481695,180.1801802
3.965,0.089589241,180.1801802
3.966,0.095973673,180.1801802
3.967,0.102038884,180.1801802
3.968,0.106827208,180.1801802
3.969,0.110019424,180.1801802
3.97,0.110338646,180.1801802
3.971,0.107465651,180.1801802
3.972,0.101081219,180.1801802
3.973,0.091504571,180.1801802
3.974,0.07937415,180.1801802
3.975,0.065328399,180.1801802
3.976,0.050644205,180.1801802
3.977,0.035960011,180.1801802
3.978,0.022552703,180.1801802
3.979,0.011379947,180.1801802
3.98,0.003080185,180.1801802
3.981,-0.002027361,180.1801802
3.982,-0.00394269,180.1801802
3.983,-0.002985026,180.1801802
3.984,0.000845634,180.1801802
3.985,0.006272401,180.1801802
3.986,0.01201839,180.1801802
3.987,0.018083601,180.1801802
3.988,0.023191146,180.1801802
3.989,0.026064141,180.1801802
3.99,0.026064141,180.1801802
3.991,0.023191146,180.1801802
3.992,0.017125936,180.1801802
3.993,0.008187731,180.1801802
3.994,-0.002985026,180.1801802
3.995,-0.016392333,180.1801802
3.996,-0.030118862,180.1801802
3.997,-0.04352617,180.1801802
3.998,-0.055656591,180.1801802
3.999,-0.065552461,180.1801802
4,-0.072256115,180.1801802
4.001,-0.075767553,180.1801802
4.002,-0.075767553,180.1801802
4.003,-0.07321378,180.1801802
4.004,-0.068106234,180.1801802
4.005,-0.061721802,180.1801802
4.006,-0.055018148,180.1801802
4.007,-0.048633716,180.1801802
4.008,-0.04352617,180.1801802
4.009,-0.040972397,180.1801802
4.01,-0.041291619,180.1801802
4.011,-0.044803057,180.1801802
4.012,-0.051187489,180.1801802
4.013,-0.060444915,180.1801802
4.014,-0.07129845,180.1801802
4.015,-0.08310965,180.1801802
4.016,-0.094920849,180.1801802
4.017,-0.105774384,180.1801802
4.018,-0.114712589,180.1801802
4.019,-0.120458578,180.1801802
4.02,-0.123012351,180.1801802
4.021,-0.121735464,180.1801802
4.022,-0.116627919,180.1801802
4.023,-0.108647378,180.1801802
4.024,-0.098113065,180.1801802
4.025,-0.086621087,180.1801802
4.026,-0.074809888,180.1801802
4.027,-0.063956353,180.1801802
4.028,-0.055018148,180.1801802
4.029,-0.048952937,180.1801802
4.03,-0.046079943,180.1801802
4.031,-0.047037608,180.1801802
4.032,-0.051187489,180.1801802
4.033,-0.058529586,180.1801802
4.034,-0.068106234,180.1801802
4.035,-0.078640547,180.1801802
4.036,-0.089813303,180.1801802
4.037,-0.100347617,180.1801802
4.038,-0.1089666,180.1801802
4.039,-0.115031811,180.1801802
4.04,-0.117585583,180.1801802
4.041,-0.116627919,180.1801802
4.042,-0.112158816,180.1801802
4.043,-0.104816719,180.1801802
4.044,-0.094920849,180.1801802
4.045,-0.084067314,180.1801802
4.046,-0.072894558,180.1801802
4.047,-0.062998688,180.1801802
4.048,-0.055018148,180.1801802
4.049,-0.049591381,180.1801802
4.05,-0.047356829,180.1801802
4.051,-0.048314494,180.1801802
4.052,-0.052783597,180.1801802
4.053,-0.059487251,180.1801802
4.054,-0.068425456,180.1801802
4.055,-0.078002104,180.1801802
4.056,-0.087259531,180.1801802
4.057,-0.095559292,180.1801802
4.058,-0.101624503,180.1801802
4.059,-0.104816719,180.1801802
4.06,-0.105135941,180.1801802
4.061,-0.102262946,180.1801802
4.062,-0.096197736,180.1801802
4.063,-0.087897974,180.1801802
4.064,-0.078321326,180.1801802
4.065,-0.068425456,180.1801802
4.066,-0.058848807,180.1801802
4.067,-0.050229824,180.1801802
4.068,-0.044164613,180.1801802
4.069,-0.040972397,180.1801802
4.07,-0.041291619,180.1801802
4.071,-0.045760721,180.1801802
4.072,-0.053741262,180.1801802
4.073,-0.064275575,180.1801802
4.074,-0.076405996,180.1801802
4.075,-0.088855639,180.1801802
4.076,-0.100028395,180.1801802
4.077,-0.109605043,180.1801802
4.078,-0.116308697,180.1801802
4.079,-0.119820135,180.1801802
4.08,-0.119820135,180.1801802
4.081,-0.116308697,180.1801802
4.082,-0.109285822,180.1801802
4.083,-0.099389952,180.1801802
4.084,-0.087897974,180.1801802
4.085,-0.075767553,180.1801802
4.086,-0.063956353,180.1801802
4.087,-0.054060483,180.1801802
4.088,-0.046718386,180.1801802
4.089,-0.042568505,180.1801802
4.09,-0.042249284,180.1801802
4.091,-0.045760721,180.1801802
4.092,-0.052145154,180.1801802
4.093,-0.06140258,180.1801802
4.094,-0.072575337,180.1801802
4.095,-0.084067314,180.1801802
4.096,-0.095559292,180.1801802
4.097,-0.105774384,180.1801802
4.098,-0.113754924,180.1801802
4.099,-0.11886247,180.1801802
4.1,-0.120458578,180.1801802
4.101,-0.118543248,180.1801802
4.102,-0.113435703,180.1801802
4.103,-0.105774384,180.1801802
4.104,-0.096836179,180.1801802
4.105,-0.087259531,180.1801802
4.106,-0.078002104,180.1801802
4.107,-0.070340785,180.1801802
4.108,-0.06523324,180.1801802
4.109,-0.062998688,180.1801802
4.11,-0.063637131,180.1801802
4.111,-0.067467791,180.1801802
4.112,-0.074171445,180.1801802
4.113,-0.082471206,180.1801802
4.114,-0.092367076,180.1801802
4.115,-0.102262946,180.1801802
4.116,-0.111201151,180.1801802
4.117,-0.118543248,180.1801802
4.118,-0.123331572,180.1801802
4.119,-0.124608459,180.1801802
4.12,-0.122693129,180.1801802
4.121,-0.117585583,180.1801802
4.122,-0.110243486,180.1801802
4.123,-0.10098606,180.1801802
4.124,-0.090770968,180.1801802
4.125,-0.080555877,180.1801802
4.126,-0.071936893,180.1801802
4.127,-0.06523324,180.1801802
4.128,-0.061721802,180.1801802
4.129,-0.06140258,180.1801802
4.13,-0.064275575,180.1801802
4.131,-0.070340785,180.1801802
4.132,-0.078959769,180.1801802
4.133,-0.088855639,180.1801802
4.134,-0.099709173,180.1801802
4.135,-0.110562708,180.1801802
4.136,-0.120458578,180.1801802
4.137,-0.128119897,180.1801802
4.138,-0.132588999,180.1801802
4.139,-0.134185107,180.1801802
4.14,-0.131950556,180.1801802
4.141,-0.12684301,180.1801802
4.142,-0.118543248,180.1801802
4.143,-0.1089666,180.1801802
4.144,-0.098113065,180.1801802
4.145,-0.087897974,180.1801802
4.146,-0.078959769,180.1801802
4.147,-0.072575337,180.1801802
4.148,-0.069063899,180.1801802
4.149,-0.069063899,180.1801802
4.15,-0.072575337,180.1801802
4.151,-0.078959769,180.1801802
4.152,-0.087897974,180.1801802
4.153,-0.098432287,180.1801802
4.154,-0.109285822,180.1801802
4.155,-0.120139356,180.1801802
4.156,-0.129077561,180.1801802
4.157,-0.135781215,180.1801802
4.158,-0.139611875,180.1801802
4.159,-0.139931096,180.1801802
4.16,-0.137058102,180.1801802
4.161,-0.131312113,180.1801802
4.162,-0.123012351,180.1801802
4.163,-0.113435703,180.1801802
4.164,-0.103220611,180.1801802
4.165,-0.093324741,180.1801802
4.166,-0.085344201,180.1801802
4.167,-0.07927899,180.1801802
4.168,-0.076405996,180.1801802
4.169,-0.076725217,180.1801802
4.17,-0.080555877,180.1801802
4.171,-0.086940309,180.1801802
4.172,-0.095559292,180.1801802
4.173,-0.105135941,180.1801802
4.174,-0.114712589,180.1801802
4.175,-0.123331572,180.1801802
4.176,-0.130035226,180.1801802
4.177,-0.133865886,180.1801802
4.178,-0.133865886,180.1801802
4.179,-0.130035226,180.1801802
4.18,-0.122373908,180.1801802
4.181,-0.111520373,180.1801802
4.182,-0.098432287,180.1801802
4.183,-0.083748093,180.1801802
4.184,-0.068744677,180.1801802
4.185,-0.054698926,180.1801802
4.186,-0.042568505,180.1801802
4.187,-0.032991857,180.1801802
4.188,-0.026926646,180.1801802
4.189,-0.024372874,180.1801802
4.19,-0.025330538,180.1801802
4.191,-0.029161198,180.1801802
4.192,-0.035226408,180.1801802
4.193,-0.042249284,180.1801802
4.194,-0.049910602,180.1801802
4.195,-0.056614256,180.1801802
4.196,-0.062041023,180.1801802
4.197,-0.06523324,180.1801802
4.198,-0.06523324,180.1801802
4.199,-0.061721802,180.1801802
4.2,-0.055018148,180.1801802
4.201,-0.0454415,180.1801802
4.202,-0.0336303,180.1801802
4.203,-0.020861436,180.1801802
4.204,-0.00777335,180.1801802
4.205,0.00403785,180.1801802
4.206,0.013614498,180.1801802
4.207,0.020956595,180.1801802
4.208,0.024787254,180.1801802
4.209,0.025425698,180.1801802
4.21,0.022871925,180.1801802
4.211,0.017764379,180.1801802
4.212,0.010741504,180.1801802
4.213,0.003399407,180.1801802
4.214,-0.004900355,180.1801802
4.215,-0.011923231,180.1801802
4.216,-0.01766922,180.1801802
4.217,-0.020861436,180.1801802
4.218,-0.021499879,180.1801802
4.219,-0.019265328,180.1801802
4.22,-0.014157782,180.1801802
4.221,-0.007134907,180.1801802
4.222,0.001484077,180.1801802
4.223,0.009783839,180.1801802
4.224,0.017445157,180.1801802
4.225,0.023510368,180.1801802
4.226,0.026383362,180.1801802
4.227,0.025744919,180.1801802
4.228,0.021275817,180.1801802
4.229,0.012976055,180.1801802
4.23,0.001484077,180.1801802
4.231,-0.012880896,180.1801802
4.232,-0.029480419,180.1801802
4.233,-0.046399165,180.1801802
4.234,-0.06331791,180.1801802
4.235,-0.078959769,180.1801802
4.236,-0.092367076,180.1801802
4.237,-0.102901389,180.1801802
4.238,-0.109924265,180.1801802
4.239,-0.113754924,180.1801802
4.24,-0.114074146,180.1801802
4.241,-0.112158816,180.1801802
4.242,-0.108328157,180.1801802
4.243,-0.104178276,180.1801802
4.244,-0.100028395,180.1801802
4.245,-0.0971554,180.1801802
4.246,-0.096197736,180.1801802
4.247,-0.098113065,180.1801802
4.248,-0.102582168,180.1801802
4.249,-0.110243486,180.1801802
4.25,-0.120139356,180.1801802
4.251,-0.131631334,180.1801802
4.252,-0.144080977,180.1801802
4.253,-0.15653062,120.9677419
4.254,-0.168022598,120.9677419
4.255,-0.177599246,120.9677419
4.256,-0.1843029,120.9677419
4.257,-0.187814338,120.9677419
4.258,-0.188133559,120.9677419
4.259,-0.184622121,120.9677419
4.26,-0.178556911,120.9677419
4.261,-0.169937927,120.9677419
